time_s,intensity_760nm,intensity_850nm
0.0000,0.53503036,1
1.0000,0.52924585,1
2.0000,0.5240106,1
3.0000,0.5230484,1
4.0000,0.53026158,1
5.0000,0.53039867,1
6.0000,0.53149331,1
7.0000,0.53845596,1
8.0000,0.53445584,1
9.0000,0.53300411,1
10.0000,0.53757691,1
11.0000,0.5323872,1
12.0000,0.52922028,1
13.0000,0.53293115,1
14.0000,0.5335964,1
15.0000,0.53907067,1
16.0000,0.53978235,1
17.0000,0.53555137,1
18.0000,0.53444576,1
19.0000,0.53187734,1
20.0000,0.53980768,1
21.0000,0.53336704,1
22.0000,0.53480041,1
23.0000,0.52788109,1
24.0000,0.5282222,1
25.0000,0.53337646,1
26.0000,0.52700943,1
27.0000,0.53178018,1
28.0000,0.52774733,1
29.0000,0.52415353,1
30.0000,0.53203136,1
31.0000,0.52494586,1
32.0000,0.52598429,1
33.0000,0.534872,1
34.0000,0.52674633,1
35.0000,0.53225297,1
36.0000,0.5263564,1
37.0000,0.52795178,1
38.0000,0.53633559,1
39.0000,0.52991056,1
40.0000,0.53076088,1
41.0000,0.53044897,1
42.0000,0.52815849,1
43.0000,0.53259039,1
44.0000,0.52742445,1
45.0000,0.52992976,1
46.0000,0.5381211,1
47.0000,0.5306406,1
48.0000,0.53321379,1
49.0000,0.52866817,1
50.0000,0.52630961,1
51.0000,0.53262413,1
52.0000,0.52623922,1
53.0000,0.5290727,1
54.0000,0.53806096,1
55.0000,0.53263348,1
56.0000,0.53393883,1
57.0000,0.53062332,1
58.0000,0.52854455,1
59.0000,0.53609473,1
60.0000,0.53017795,1
61.0000,0.53763074,1
62.0000,0.52942318,1
63.0000,0.53591102,1
64.0000,0.53910285,1
65.0000,0.53703547,1
66.0000,0.53903168,1
67.0000,0.54090583,1
68.0000,0.54817998,1
69.0000,0.54722273,1
70.0000,0.55323106,1
71.0000,0.54916155,1
72.0000,0.54961389,1
73.0000,0.55242479,1
74.0000,0.56042236,1
75.0000,0.55761266,1
76.0000,0.56388891,1
77.0000,0.55555314,1
78.0000,0.55300611,1
79.0000,0.55435598,1
80.0000,0.56340128,1
81.0000,0.55441415,1
82.0000,0.55794245,1
83.0000,0.56599355,1
84.0000,0.56100398,1
85.0000,0.56529689,1
86.0000,0.55624419,1
87.0000,0.5613746,1
88.0000,0.55228287,1
89.0000,0.55402464,1
90.0000,0.5581426,1
91.0000,0.55203867,1
92.0000,0.55745542,1
93.0000,0.55319548,1
94.0000,0.55434406,1
95.0000,0.5623033,1
96.0000,0.55447489,1
97.0000,0.55536443,1
98.0000,0.56216937,1
99.0000,0.55346644,1
100.0000,0.5557853,1
101.0000,0.54817438,1
102.0000,0.55292511,1
103.0000,0.55848891,1
104.0000,0.55195665,1
105.0000,0.55764425,1
106.0000,0.55176127,1
107.0000,0.55283558,1
108.0000,0.55878139,1
109.0000,0.54884124,1
110.0000,0.54935461,1
111.0000,0.55549586,1
112.0000,0.54821122,1
113.0000,0.5479275,1
114.0000,0.55364627,1
115.0000,0.5463385,1
116.0000,0.54916835,1
117.0000,0.55060631,1
118.0000,0.54198056,1
119.0000,0.54638898,1
120.0000,0.55051225,1
121.0000,0.55766088,1
122.0000,0.54722852,1
123.0000,0.55223054,1
124.0000,0.55284643,1
125.0000,0.54254544,1
126.0000,0.54762512,1
127.0000,0.54170549,1
128.0000,0.54266298,1
129.0000,0.54941726,1
130.0000,0.55685151,1
131.0000,0.55030686,1
132.0000,0.55012667,1
133.0000,0.55628467,1
134.0000,0.54645169,1
135.0000,0.54655033,1
136.0000,0.54923677,1
137.0000,0.54199272,1
138.0000,0.54456198,1
139.0000,0.55320317,1
140.0000,0.5471189,1
141.0000,0.54816705,1
142.0000,0.55565256,1
143.0000,0.54813141,1
144.0000,0.54968053,1
145.0000,0.54939449,1
146.0000,0.54480326,1
147.0000,0.54753226,1
148.0000,0.5518955,1
149.0000,0.54838806,1
150.0000,0.5518328,1
151.0000,0.56083721,1
152.0000,0.5534845,1
153.0000,0.55294496,1
154.0000,0.54948127,1
155.0000,0.54576665,1
156.0000,0.5495038,1
157.0000,0.55580199,1
158.0000,0.54829961,1
159.0000,0.55073392,1
160.0000,0.55839455,1
161.0000,0.5518496,1
162.0000,0.55370331,1
163.0000,0.56061757,1
164.0000,0.55474097,1
165.0000,0.5577094,1
166.0000,0.56072354,1
167.0000,0.55636901,1
168.0000,0.55593556,1
169.0000,0.56193554,1
170.0000,0.56964308,1
171.0000,0.563007,1
172.0000,0.56462109,1
173.0000,0.57096404,1
174.0000,0.561459,1
175.0000,0.56134838,1
176.0000,0.56825238,1
177.0000,0.55758423,1
178.0000,0.55900872,1
179.0000,0.56504899,1
180.0000,0.56816268,1
181.0000,0.55957544,1
182.0000,0.56364626,1
183.0000,0.56657648,1
184.0000,0.55838817,1
185.0000,0.56088215,1
186.0000,0.5674665,1
187.0000,0.57030106,1
188.0000,0.56145102,1
189.0000,0.56645113,1
190.0000,0.56846875,1
191.0000,0.56033862,1
192.0000,0.56291074,1
193.0000,0.56417495,1
194.0000,0.55907148,1
195.0000,0.55638999,1
196.0000,0.55661356,1
197.0000,0.56195867,1
198.0000,0.55088603,1
199.0000,0.5521366,1
200.0000,0.55670828,1
201.0000,0.56089461,1
202.0000,0.55376315,1
203.0000,0.55185544,1
204.0000,0.55296838,1
205.0000,0.56003869,1
206.0000,0.54992014,1
207.0000,0.55010915,1
208.0000,0.55610472,1
209.0000,0.55795634,1
210.0000,0.55216771,1
211.0000,0.5524894,1
212.0000,0.55797434,1
213.0000,0.55698639,1
214.0000,0.5481801,1
215.0000,0.54955548,1
216.0000,0.55545604,1
217.0000,0.56198162,1
218.0000,0.55359536,1
219.0000,0.55490863,1
220.0000,0.55966777,1
221.0000,0.56161106,1
222.0000,0.55611521,1
223.0000,0.55557603,1
224.0000,0.55707115,1
225.0000,0.56276965,1
226.0000,0.55198371,1
227.0000,0.55283803,1
228.0000,0.55644304,1
229.0000,0.5553748,1
230.0000,0.54992038,1
231.0000,0.55053496,1
232.0000,0.5527181,1
233.0000,0.55829567,1
234.0000,0.54844427,1
235.0000,0.55344421,1
236.0000,0.55775267,1
237.0000,0.55307078,1
238.0000,0.55408585,1
239.0000,0.55866212,1
240.0000,0.55563176,1
241.0000,0.55629826,1
242.0000,0.55986637,1
243.0000,0.55639154,1
244.0000,0.55618221,1
245.0000,0.55999696,1
246.0000,0.55736387,1
247.0000,0.56172198,1
248.0000,0.56631839,1
249.0000,0.57364589,1
250.0000,0.56614351,1
251.0000,0.56758744,1
252.0000,0.57486558,1
253.0000,0.56685024,1
254.0000,0.57143939,1
255.0000,0.57437313,1
256.0000,0.5685147,1
257.0000,0.57328957,1
258.0000,0.57254732,1
259.0000,0.57072091,1
260.0000,0.5772953,1
261.0000,0.58028221,1
262.0000,0.57411152,1
263.0000,0.5783695,1
264.0000,0.57382119,1
265.0000,0.57400531,1
266.0000,0.5766508,1
267.0000,0.57157195,1
268.0000,0.57446843,1
269.0000,0.58206135,1
270.0000,0.58441776,1
271.0000,0.57473469,1
272.0000,0.5797525,1
273.0000,0.58175445,1
274.0000,0.57091457,1
275.0000,0.57584512,1
276.0000,0.57770967,1
277.0000,0.56955898,1
278.0000,0.57609582,1
279.0000,0.5852679,1
280.0000,0.57511622,1
281.0000,0.57653028,1
282.0000,0.5827359,1
283.0000,0.5717712,1
284.0000,0.57092118,1
285.0000,0.57601768,1
286.0000,0.57808924,1
287.0000,0.57033914,1
288.0000,0.57110578,1
289.0000,0.57643044,1
290.0000,0.56964761,1
291.0000,0.56352019,1
292.0000,0.56779498,1
293.0000,0.55968887,1
294.0000,0.55987358,1
295.0000,0.5654301,1
296.0000,0.57342583,1
297.0000,0.56734008,1
298.0000,0.56665009,1
299.0000,0.57097197,1
300.0000,0.56393838,1
301.0000,0.55984181,1
302.0000,0.55998051,1
303.0000,0.56139445,1
304.0000,0.55576485,1
305.0000,0.55165583,1
306.0000,0.55544907,1
307.0000,0.55844551,1
308.0000,0.56564319,1
309.0000,0.56669623,1
310.0000,0.56106675,1
311.0000,0.5607844,1
312.0000,0.56233019,1
313.0000,0.56901532,1
314.0000,0.55963504,1
315.0000,0.56228203,1
316.0000,0.56549817,1
317.0000,0.57323813,1
318.0000,0.56588721,1
319.0000,0.56732076,1
320.0000,0.56956601,1
321.0000,0.57738858,1
322.0000,0.56711859,1
323.0000,0.56722009,1
324.0000,0.57154566,1
325.0000,0.5778715,1
326.0000,0.57854998,1
327.0000,0.56735152,1
328.0000,0.57044744,1
329.0000,0.57105863,1
330.0000,0.57572496,1
331.0000,0.57148981,1
332.0000,0.56785649,1
333.0000,0.56698847,1
334.0000,0.569839,1
335.0000,0.57600021,1
336.0000,0.57770866,1
337.0000,0.56939745,1
338.0000,0.5730533,1
339.0000,0.57875204,1
340.0000,0.57595837,1
341.0000,0.57058823,1
342.0000,0.57711691,1
343.0000,0.58113253,1
344.0000,0.58413303,1
345.0000,0.57917374,1
346.0000,0.57906187,1
347.0000,0.58370054,1
348.0000,0.58506376,1
349.0000,0.58289701,1
350.0000,0.57977033,1
351.0000,0.58403343,1
352.0000,0.58497214,1
353.0000,0.59071994,1
354.0000,0.58049959,1
355.0000,0.58180493,1
356.0000,0.58551127,1
357.0000,0.59060735,1
358.0000,0.59215415,1
359.0000,0.58132207,1
360.0000,0.57955396,1
361.0000,0.58353037,1
362.0000,0.57710111,1
363.0000,0.57684618,1
364.0000,0.58150566,1
365.0000,0.58845967,1
366.0000,0.59506148,1
367.0000,0.59596437,1
368.0000,0.58557308,1
369.0000,0.58713073,1
370.0000,0.5873307,1
371.0000,0.59249985,1
372.0000,0.58213848,1
373.0000,0.57902342,1
374.0000,0.57923788,1
375.0000,0.58376443,1
376.0000,0.58561867,1
377.0000,0.57477361,1
378.0000,0.57732022,1
379.0000,0.58197856,1
380.0000,0.58798128,1
381.0000,0.57610613,1
382.0000,0.57777637,1
383.0000,0.58318418,1
384.0000,0.58972067,1
385.0000,0.58830053,1
386.0000,0.58174735,1
387.0000,0.58466518,1
388.0000,0.58503038,1
389.0000,0.58861774,1
390.0000,0.58119529,1
391.0000,0.58342397,1
392.0000,0.5893811,1
393.0000,0.59550112,1
394.0000,0.56487381,1
395.0000,0.56948113,1
396.0000,0.56510848,1
397.0000,0.56746691,1
398.0000,0.57016003,1
399.0000,0.56117761,1
400.0000,0.56126148,1
401.0000,0.54810798,1
402.0000,0.56835067,1
403.0000,0.56261802,1
404.0000,0.57542706,1
405.0000,0.56939095,1
406.0000,0.57321179,1
407.0000,0.58420676,1
408.0000,0.57561493,1
409.0000,0.58246183,1
410.0000,0.58570385,1
411.0000,0.57461733,1
412.0000,0.57766461,1
413.0000,0.583314,1
414.0000,0.57072902,1
415.0000,0.56992519,1
416.0000,0.57286888,1
417.0000,0.57234925,1
418.0000,0.56022203,1
419.0000,0.55907112,1
420.0000,0.56132483,1
421.0000,0.56231856,1
422.0000,0.55834424,1
423.0000,0.55665541,1
424.0000,0.55797809,1
425.0000,0.56138271,1
426.0000,0.56740868,1
427.0000,0.56011045,1
428.0000,0.56023294,1
429.0000,0.56339514,1
430.0000,0.57022244,1
431.0000,0.57639658,1
432.0000,0.57830298,1
433.0000,0.57018119,1
434.0000,0.57081938,1
435.0000,0.57193267,1
436.0000,0.5759936,1
437.0000,0.57868379,1
438.0000,0.58327234,1
439.0000,0.58200324,1
440.0000,0.57368982,1
441.0000,0.57623231,1
442.0000,0.57702178,1
443.0000,0.5815199,1
444.0000,0.58677632,1
445.0000,0.57685697,1
446.0000,0.57570088,1
447.0000,0.5754239,1
448.0000,0.57872975,1
449.0000,0.57754773,1
450.0000,0.5813126,1
451.0000,0.5698663,1
452.0000,0.56916738,1
453.0000,0.57296675,1
454.0000,0.57940322,1
455.0000,0.58112752,1
456.0000,0.57608038,1
457.0000,0.57380867,1
458.0000,0.57630128,1
459.0000,0.57635266,1
460.0000,0.57966006,1
461.0000,0.56901735,1
462.0000,0.57119668,1
463.0000,0.57409084,1
464.0000,0.5752418,1
465.0000,0.58063525,1
466.0000,0.57227105,1
467.0000,0.57122266,1
468.0000,0.57263666,1
469.0000,0.57864511,1
470.0000,0.58475065,1
471.0000,0.58629262,1
472.0000,0.57621306,1
473.0000,0.57662815,1
474.0000,0.57721543,1
475.0000,0.58281302,1
476.0000,0.57479018,1
477.0000,0.57391167,1
478.0000,0.57596052,1
479.0000,0.58158475,1
480.0000,0.58622319,1
481.0000,0.58593082,1
482.0000,0.57600111,1
483.0000,0.5752936,1
484.0000,0.57432336,1
485.0000,0.57842994,1
486.0000,0.5844987,1
487.0000,0.58595014,1
488.0000,0.57633275,1
489.0000,0.57749391,1
490.0000,0.57824624,1
491.0000,0.58410037,1
492.0000,0.58280438,1
493.0000,0.5795207,1
494.0000,0.58026683,1
495.0000,0.5859884,1
496.0000,0.58816355,1
497.0000,0.57963741,1
498.0000,0.58283067,1
499.0000,0.58533108,1
500.0000,0.59356689,1
501.0000,0.58458465,1
502.0000,0.58520031,1
503.0000,0.59042257,1
504.0000,0.585971,1
505.0000,0.58399332,1
506.0000,0.58785182,1
507.0000,0.59075755,1
508.0000,0.592888,1
509.0000,0.58968168,1
510.0000,0.59525043,1
511.0000,0.59781736,1
512.0000,0.58943009,1
513.0000,0.59280461,1
514.0000,0.59637809,1
515.0000,0.59257263,1
516.0000,0.59063792,1
517.0000,0.59261841,1
518.0000,0.59881997,1
519.0000,0.58746159,1
520.0000,0.58789986,1
521.0000,0.59532148,1
522.0000,0.59716552,1
523.0000,0.58929771,1
524.0000,0.59454852,1
525.0000,0.59653264,1
526.0000,0.59192967,1
527.0000,0.59399974,1
528.0000,0.59905434,1
529.0000,0.59840518,1
530.0000,0.58972406,1
531.0000,0.59436071,1
532.0000,0.59763706,1
533.0000,0.59158808,1
534.0000,0.59158456,1
535.0000,0.59339845,1
536.0000,0.59945464,1
537.0000,0.58924872,1
538.0000,0.58668602,1
539.0000,0.58935863,1
540.0000,0.59547716,1
541.0000,0.58461267,1
542.0000,0.5859468,1
543.0000,0.58850336,1
544.0000,0.59466457,1
545.0000,0.58655703,1
546.0000,0.58703047,1
547.0000,0.59151483,1
548.0000,0.59844035,1
549.0000,0.59086657,1
550.0000,0.59057814,1
551.0000,0.59299898,1
552.0000,0.59511822,1
553.0000,0.60126895,1
554.0000,0.59121656,1
555.0000,0.59116238,1
556.0000,0.5920012,1
557.0000,0.59693635,1
558.0000,0.59023321,1
559.0000,0.59050834,1
560.0000,0.59006286,1
561.0000,0.59461039,1
562.0000,0.59080458,1
563.0000,0.58899593,1
564.0000,0.58914858,1
565.0000,0.59425795,1
566.0000,0.59138334,1
567.0000,0.58898979,1
568.0000,0.58885026,1
569.0000,0.59271765,1
570.0000,0.59737009,1
571.0000,0.59733164,1
572.0000,0.58579117,1
573.0000,0.58676589,1
574.0000,0.58824462,1
575.0000,0.59426415,1
576.0000,0.58585602,1
577.0000,0.58741111,1
578.0000,0.59301174,1
579.0000,0.60050988,1
580.0000,0.60002929,1
581.0000,0.59182698,1
582.0000,0.59532773,1
583.0000,0.60207164,1
584.0000,0.60016018,1
585.0000,0.59318036,1
586.0000,0.59673864,1
587.0000,0.59872842,1
588.0000,0.60584372,1
589.0000,0.59615618,1
590.0000,0.59972352,1
591.0000,0.60138327,1
592.0000,0.60815972,1
593.0000,0.60055619,1
594.0000,0.59943396,1
595.0000,0.60406792,1
596.0000,0.60948038,1
597.0000,0.60053438,1
598.0000,0.59977925,1
599.0000,0.60431653,1
600.0000,0.60500753,1
601.0000,0.59636456,1
602.0000,0.5983603,1
603.0000,0.60418934,1
604.0000,0.60722315,1
605.0000,0.59792686,1
606.0000,0.60219383,1
607.0000,0.60439652,1
608.0000,0.59903657,1
609.0000,0.59775358,1
610.0000,0.59850645,1
611.0000,0.60418445,1
612.0000,0.59460604,1
613.0000,0.59885001,1
614.0000,0.60112578,1
615.0000,0.60260004,1
616.0000,0.59719104,1
617.0000,0.59720594,1
618.0000,0.60227418,1
619.0000,0.59676093,1
620.0000,0.59608209,1
621.0000,0.5974009,1
622.0000,0.60330427,1
623.0000,0.59619349,1
624.0000,0.59639347,1
625.0000,0.59818357,1
626.0000,0.60402304,1
627.0000,0.60598385,1
628.0000,0.59848672,1
629.0000,0.5980857,1
630.0000,0.59817505,1
631.0000,0.60121119,1
632.0000,0.59283292,1
633.0000,0.59008706,1
634.0000,0.59162903,1
635.0000,0.59654379,1
636.0000,0.5976634,1
637.0000,0.60188919,1
638.0000,0.59084588,1
639.0000,0.59334636,1
640.0000,0.5939014,1
641.0000,0.59894669,1
642.0000,0.60001194,1
643.0000,0.59232259,1
644.0000,0.59192419,1
645.0000,0.5958479,1
646.0000,0.59720683,1
647.0000,0.60255569,1
648.0000,0.60299903,1
649.0000,0.59855765,1
650.0000,0.5955283,1
651.0000,0.59767169,1
652.0000,0.59683186,1
653.0000,0.60025746,1
654.0000,0.59094679,1
655.0000,0.58855999,1
656.0000,0.58798373,1
657.0000,0.59183824,1
658.0000,0.59042948,1
659.0000,0.5843206,1
660.0000,0.58501238,1
661.0000,0.58614612,1
662.0000,0.5909915,1
663.0000,0.5971213,1
664.0000,0.59958255,1
665.0000,0.59081048,1
666.0000,0.59309971,1
667.0000,0.59784579,1
668.0000,0.60358799,1
669.0000,0.60488391,1
670.0000,0.5942359,1
671.0000,0.59529239,1
672.0000,0.60029918,1
673.0000,0.60157013,1
674.0000,0.59394377,1
675.0000,0.59516507,1
676.0000,0.59759825,1
677.0000,0.60408062,1
678.0000,0.60448074,1
679.0000,0.5998565,1
680.0000,0.59974664,1
681.0000,0.60370791,1
682.0000,0.60565364,1
683.0000,0.61076063,1
684.0000,0.59894109,1
685.0000,0.60229272,1
686.0000,0.60883993,1
687.0000,0.61034608,1
688.0000,0.60160202,1
689.0000,0.60116678,1
690.0000,0.60278541,1
691.0000,0.6085456,1
692.0000,0.60666019,1
693.0000,0.60138303,1
694.0000,0.60167193,1
695.0000,0.60676199,1
696.0000,0.59950536,1
697.0000,0.59755516,1
698.0000,0.59781414,1
699.0000,0.60320979,1
700.0000,0.60322648,1
701.0000,0.60175067,1
702.0000,0.60135597,1
703.0000,0.60572058,1
704.0000,0.61162055,1
705.0000,0.61260951,1
706.0000,0.60358274,1
707.0000,0.60295045,1
708.0000,0.60494953,1
709.0000,0.60446388,1
710.0000,0.60815579,1
711.0000,0.61195296,1
712.0000,0.60576969,1
713.0000,0.59651524,1
714.0000,0.59588552,1
715.0000,0.59515464,1
716.0000,0.59941792,1
717.0000,0.59038723,1
718.0000,0.58789438,1
719.0000,0.58937126,1
720.0000,0.59406596,1
721.0000,0.5997979,1
722.0000,0.60566199,1
723.0000,0.60626906,1
724.0000,0.59437215,1
725.0000,0.59561849,1
726.0000,0.59585875,1
727.0000,0.60051662,1
728.0000,0.59112108,1
729.0000,0.59232163,1
730.0000,0.59307152,1
731.0000,0.59911442,1
732.0000,0.6055131,1
733.0000,0.596798,1
734.0000,0.59575951,1
735.0000,0.59704238,1
736.0000,0.60211354,1
737.0000,0.60235661,1
738.0000,0.59487158,1
739.0000,0.58957934,1
740.0000,0.58914971,1
741.0000,0.59330976,1
742.0000,0.59911758,1
743.0000,0.60102063,1
744.0000,0.60714918,1
745.0000,0.61095977,1
746.0000,0.60179955,1
747.0000,0.60121572,1
748.0000,0.60381961,1
749.0000,0.60898465,1
750.0000,0.6099081,1
751.0000,0.60561454,1
752.0000,0.60202879,1
753.0000,0.60143048,1
754.0000,0.60384184,1
755.0000,0.60946661,1
756.0000,0.61285263,1
757.0000,0.60367465,1
758.0000,0.60613495,1
759.0000,0.60794759,1
760.0000,0.61423784,1
761.0000,0.60873264,1
762.0000,0.60992736,1
763.0000,0.60985488,1
764.0000,0.61456531,1
765.0000,0.61117268,1
766.0000,0.60774308,1
767.0000,0.60912186,1
768.0000,0.61397707,1
769.0000,0.61622429,1
770.0000,0.61309081,1
771.0000,0.61267632,1
772.0000,0.6134761,1
773.0000,0.61907482,1
774.0000,0.6257515,1
775.0000,0.62318105,1
776.0000,0.61545753,1
777.0000,0.61795169,1
778.0000,0.6181646,1
779.0000,0.62319243,1
780.0000,0.61267453,1
781.0000,0.61283576,1
782.0000,0.61624384,1
783.0000,0.62172276,1
784.0000,0.62401658,1
785.0000,0.61220253,1
786.0000,0.61436802,1
787.0000,0.61515403,1
788.0000,0.6207723,1
789.0000,0.6087811,1
790.0000,0.60879529,1
791.0000,0.61160439,1
792.0000,0.61647028,1
793.0000,0.61739814,1
794.0000,0.60642922,1
795.0000,0.60950094,1
796.0000,0.61162311,1
797.0000,0.6189096,1
798.0000,0.60970533,1
799.0000,0.60964048,1
800.0000,0.61149085,1
801.0000,0.6173721,1
802.0000,0.61855543,1
803.0000,0.60896665,1
804.0000,0.61100721,1
805.0000,0.61319828,1
806.0000,0.61953783,1
807.0000,0.61108971,1
808.0000,0.61194599,1
809.0000,0.61604953,1
810.0000,0.62306929,1
811.0000,0.6171754,1
812.0000,0.61326689,1
813.0000,0.60129559,1
814.0000,0.57473469,1
815.0000,0.59603995,1
816.0000,0.59387159,1
817.0000,0.58789647,1
818.0000,0.58744776,1
819.0000,0.58783841,1
820.0000,0.59958255,1
821.0000,0.59605348,1
822.0000,0.60484767,1
823.0000,0.60392851,1
824.0000,0.60006636,1
825.0000,0.60826761,1
826.0000,0.59570402,1
827.0000,0.5986765,1
828.0000,0.588404,1
829.0000,0.58350497,1
830.0000,0.58129781,1
831.0000,0.58282202,1
832.0000,0.57509309,1
833.0000,0.58508706,1
834.0000,0.57352787,1
835.0000,0.57082289,1
836.0000,0.58031142,1
837.0000,0.57684374,1
838.0000,0.57231408,1
839.0000,0.5882743,1
840.0000,0.59757322,1
841.0000,0.58952588,1
842.0000,0.59846848,1
843.0000,0.60940713,1
844.0000,0.61032802,1
845.0000,0.60163569,1
846.0000,0.60782176,1
847.0000,0.61339021,1
848.0000,0.60343486,1
849.0000,0.60319012,1
850.0000,0.60836744,1
851.0000,0.61101967,1
852.0000,0.61373621,1
853.0000,0.60916764,1
854.0000,0.61345154,1
855.0000,0.61446899,1
856.0000,0.61941141,1
857.0000,0.61837095,1
858.0000,0.61581016,1
859.0000,0.61181301,1
860.0000,0.61446774,1
861.0000,0.61568958,1
862.0000,0.62170404,1
863.0000,0.62615204,1
864.0000,0.6159156,1
865.0000,0.61446512,1
866.0000,0.61481941,1
867.0000,0.61831445,1
868.0000,0.6185025,1
869.0000,0.60887223,1
870.0000,0.6116845,1
871.0000,0.6176703,1
872.0000,0.62020278,1
873.0000,0.61338937,1
874.0000,0.61629277,1
875.0000,0.61760807,1
876.0000,0.62283897,1
877.0000,0.61456656,1
878.0000,0.61572671,1
879.0000,0.61644518,1
880.0000,0.62239653,1
881.0000,0.61543256,1
882.0000,0.61503577,1
883.0000,0.61720037,1
884.0000,0.61784732,1
885.0000,0.62323284,1
886.0000,0.61585963,1
887.0000,0.61542678,1
888.0000,0.61541009,1
889.0000,0.61878002,1
890.0000,0.62244302,1
891.0000,0.61420149,1
892.0000,0.61071444,1
893.0000,0.61460352,1
894.0000,0.62008959,1
895.0000,0.62250787,1
896.0000,0.61383253,1
897.0000,0.61438286,1
898.0000,0.61517352,1
899.0000,0.61966646,1
900.0000,0.62195522,1
901.0000,0.61908555,1
902.0000,0.61340475,1
903.0000,0.6172055,1
904.0000,0.61779833,1
905.0000,0.6200943,1
906.0000,0.61199093,1
907.0000,0.61711597,1
908.0000,0.6201328,1
909.0000,0.6267615,1
910.0000,0.61533374,1
911.0000,0.61646014,1
912.0000,0.62167281,1
913.0000,0.62463325,1
914.0000,0.61833334,1
915.0000,0.61741561,1
916.0000,0.62226677,1
917.0000,0.62425035,1
918.0000,0.61711919,1
919.0000,0.6175344,1
920.0000,0.61902308,1
921.0000,0.62561762,1
922.0000,0.61574942,1
923.0000,0.61718333,1
924.0000,0.6195243,1
925.0000,0.62474579,1
926.0000,0.62532526,1
927.0000,0.61662191,1
928.0000,0.61794764,1
929.0000,0.61917746,1
930.0000,0.62468588,1
931.0000,0.61460406,1
932.0000,0.61430877,1
933.0000,0.61939275,1
934.0000,0.62589884,1
935.0000,0.61722142,1
936.0000,0.61633509,1
937.0000,0.61723876,1
938.0000,0.62200743,1
939.0000,0.62215084,1
940.0000,0.61853391,1
941.0000,0.61356413,1
942.0000,0.61235082,1
943.0000,0.61569977,1
944.0000,0.62038475,1
945.0000,0.61770028,1
946.0000,0.60863245,1
947.0000,0.60902292,1
948.0000,0.61161739,1
949.0000,0.61665487,1
950.0000,0.61719704,1
951.0000,0.61032134,1
952.0000,0.6088289,1
953.0000,0.61185783,1
954.0000,0.61274731,1
955.0000,0.6106444,1
956.0000,0.60431838,1
957.0000,0.60517955,1
958.0000,0.61092144,1
959.0000,0.61278301,1
960.0000,0.61849582,1
961.0000,0.60674477,1
962.0000,0.60749906,1
963.0000,0.61123878,1
964.0000,0.61816406,1
965.0000,0.61101109,1
966.0000,0.6120525,1
967.0000,0.61389983,1
968.0000,0.61979324,1
969.0000,0.6206255,1
970.0000,0.62495321,1
971.0000,0.61543506,1
972.0000,0.61564636,1
973.0000,0.61567593,1
974.0000,0.61989099,1
975.0000,0.62153077,1
976.0000,0.61337435,1
977.0000,0.61332226,1
978.0000,0.61587542,1
979.0000,0.62136686,1
980.0000,0.6221227,1
981.0000,0.6129632,1
982.0000,0.6151641,1
983.0000,0.62101609,1
984.0000,0.62145138,1
985.0000,0.6124717,1
986.0000,0.61361861,1
987.0000,0.61541188,1
988.0000,0.62077445,1
989.0000,0.61431456,1
990.0000,0.61322534,1
991.0000,0.61483747,1
992.0000,0.62098116,1
993.0000,0.62331784,1
994.0000,0.61702693,1
995.0000,0.61681587,1
996.0000,0.62385303,1
997.0000,0.62742883,1
998.0000,0.62063766,1
999.0000,0.62230009,1
1000.0000,0.62812144,1
1001.0000,0.6311447,1
1002.0000,0.62430423,1
1003.0000,0.6273638,1
1004.0000,0.62990451,1
1005.0000,0.63336778,1
1006.0000,0.62820429,1
1007.0000,0.63085479,1
1008.0000,0.63896656,1
1009.0000,0.62915993,1
1010.0000,0.63185781,1
1011.0000,0.63968456,1
1012.0000,0.63393098,1
1013.0000,0.63598788,1
1014.0000,0.63924122,1
1015.0000,0.64728981,1
1016.0000,0.63925052,1
1017.0000,0.64261836,1
1018.0000,0.64512312,1
1019.0000,0.64003283,1
1020.0000,0.63968009,1
1021.0000,0.64169812,1
1022.0000,0.64734292,1
1023.0000,0.63960284,1
1024.0000,0.64418936,1
1025.0000,0.64641976,1
1026.0000,0.64194268,1
1027.0000,0.64272153,1
1028.0000,0.64400375,1
1029.0000,0.64998901,1
1030.0000,0.63915831,1
1031.0000,0.63740623,1
1032.0000,0.64201009,1
1033.0000,0.63592285,1
1034.0000,0.63584721,1
1035.0000,0.63662869,1
1036.0000,0.64250153,1
1037.0000,0.63459051,1
1038.0000,0.63406694,1
1039.0000,0.63618141,1
1040.0000,0.64117473,1
1041.0000,0.64157915,1
1042.0000,0.63343376,1
1043.0000,0.63342673,1
1044.0000,0.63216639,1
1045.0000,0.63503295,1
1046.0000,0.63873148,1
1047.0000,0.6196503,1
1048.0000,0.61844069,1
1049.0000,0.62862891,1
1050.0000,0.63185596,1
1051.0000,0.63216525,1
1052.0000,0.62139857,1
1053.0000,0.62357676,1
1054.0000,0.62509483,1
1055.0000,0.6326068,1
1056.0000,0.64060485,1
1057.0000,0.63499075,1
1058.0000,0.63063836,1
1059.0000,0.63303167,1
1060.0000,0.63372511,1
1061.0000,0.63623464,1
1062.0000,0.62871939,1
1063.0000,0.63000673,1
1064.0000,0.63629448,1
1065.0000,0.64205199,1
1066.0000,0.63659859,1
1067.0000,0.63444,1
1068.0000,0.63964266,1
1069.0000,0.64052796,1
1070.0000,0.63437134,1
1071.0000,0.63548934,1
1072.0000,0.6357224,1
1073.0000,0.64027286,1
1074.0000,0.64615649,1
1075.0000,0.64344555,1
1076.0000,0.63750333,1
1077.0000,0.64113331,1
1078.0000,0.64295876,1
1079.0000,0.64584512,1
1080.0000,0.63837177,1
1081.0000,0.63811386,1
1082.0000,0.64365792,1
1083.0000,0.6392929,1
1084.0000,0.63649333,1
1085.0000,0.638318,1
1086.0000,0.64782923,1
1087.0000,0.651972,1
1088.0000,0.64161843,1
1089.0000,0.646788,1
1090.0000,0.64970535,1
1091.0000,0.64118826,1
1092.0000,0.64292037,1
1093.0000,0.6454525,1
1094.0000,0.64259666,1
1095.0000,0.64180142,1
1096.0000,0.64387596,1
1097.0000,0.65244669,1
1098.0000,0.64295393,1
1099.0000,0.64465404,1
1100.0000,0.65106779,1
1101.0000,0.64465654,1
1102.0000,0.64245754,1
1103.0000,0.64680207,1
1104.0000,0.64534074,1
1105.0000,0.64132166,1
1106.0000,0.64518929,1
1107.0000,0.65429157,1
1108.0000,0.6453312,1
1109.0000,0.64727587,1
1110.0000,0.65431505,1
1111.0000,0.64713281,1
1112.0000,0.64698952,1
1113.0000,0.65160233,1
1114.0000,0.64943939,1
1115.0000,0.649418,1
1116.0000,0.65278339,1
1117.0000,0.66034216,1
1118.0000,0.65148926,1
1119.0000,0.65245771,1
1120.0000,0.65729016,1
1121.0000,0.64871007,1
1122.0000,0.64963269,1
1123.0000,0.65171975,1
1124.0000,0.64557105,1
1125.0000,0.64499146,1
1126.0000,0.64634782,1
1127.0000,0.65376353,1
1128.0000,0.64983726,1
1129.0000,0.64745939,1
1130.0000,0.64770782,1
1131.0000,0.6534825,1
1132.0000,0.65089369,1
1133.0000,0.64482582,1
1134.0000,0.64286059,1
1135.0000,0.6440767,1
1136.0000,0.64644998,1
1137.0000,0.64678711,1
1138.0000,0.63301766,1
1139.0000,0.63394803,1
1140.0000,0.63478088,1
1141.0000,0.63976008,1
1142.0000,0.631818,1
1143.0000,0.63205588,1
1144.0000,0.63358521,1
1145.0000,0.63935328,1
1146.0000,0.64487672,1
1147.0000,0.64263803,1
1148.0000,0.63367546,1
1149.0000,0.63395548,1
1150.0000,0.63341671,1
1151.0000,0.63281876,1
1152.0000,0.62749463,1
1153.0000,0.63000059,1
1154.0000,0.63161743,1
1155.0000,0.63880754,1
1156.0000,0.64704949,1
1157.0000,0.64599955,1
1158.0000,0.63817465,1
1159.0000,0.64173973,1
1160.0000,0.64330691,1
1161.0000,0.64247006,1
1162.0000,0.63533664,1
1163.0000,0.63466454,1
1164.0000,0.64046305,1
1165.0000,0.64834839,1
1166.0000,0.65080267,1
1167.0000,0.64091122,1
1168.0000,0.64522076,1
1169.0000,0.64810777,1
1170.0000,0.65517944,1
1171.0000,0.64435238,1
1172.0000,0.64577973,1
1173.0000,0.64706832,1
1174.0000,0.65228581,1
1175.0000,0.65709496,1
1176.0000,0.65357339,1
1177.0000,0.64846557,1
1178.0000,0.65405428,1
1179.0000,0.65577728,1
1180.0000,0.66195208,1
1181.0000,0.65751344,1
1182.0000,0.65372783,1
1183.0000,0.6546939,1
1184.0000,0.66038358,1
1185.0000,0.66111743,1
1186.0000,0.65036833,1
1187.0000,0.65500724,1
1188.0000,0.66248471,1
1189.0000,0.66412479,1
1190.0000,0.65103376,1
1191.0000,0.65506798,1
1192.0000,0.65846026,1
1193.0000,0.66296452,1
1194.0000,0.65178287,1
1195.0000,0.65588677,1
1196.0000,0.65808356,1
1197.0000,0.66141927,1
1198.0000,0.65168428,1
1199.0000,0.65379924,1
1200.0000,0.65692955,1
1201.0000,0.65746772,1
1202.0000,0.65014005,1
1203.0000,0.65024763,1
1204.0000,0.65741825,1
1205.0000,0.66019106,1
1206.0000,0.65071934,1
1207.0000,0.65338582,1
1208.0000,0.65481263,1
1209.0000,0.66058689,1
1210.0000,0.65116453,1
1211.0000,0.65070689,1
1212.0000,0.65420592,1
1213.0000,0.66011125,1
1214.0000,0.65236372,1
1215.0000,0.64735848,1
1216.0000,0.65205401,1
1217.0000,0.65385729,1
1218.0000,0.64710343,1
1219.0000,0.64700174,1
1220.0000,0.64916945,1
1221.0000,0.65624595,1
1222.0000,0.66040909,1
1223.0000,0.6537832,1
1224.0000,0.64716446,1
1225.0000,0.65040618,1
1226.0000,0.65255064,1
1227.0000,0.6589191,1
1228.0000,0.64889938,1
1229.0000,0.64997953,1
1230.0000,0.65418547,1
