time_s,intensity_760nm,intensity_850nm
0.0000,0.013125403,0.013119382
1.0000,0.013124842,0.013120023
2.0000,0.013129316,0.013123337
3.0000,0.013125429,0.013120417
4.0000,0.013124679,0.013118892
5.0000,0.01312953,0.01312448
6.0000,0.013129469,0.013124958
7.0000,0.01312951,0.013123341
8.0000,0.013125475,0.013121155
9.0000,0.01312487,0.013119763
10.0000,0.013124897,0.013120191
11.0000,0.013129476,0.013124369
12.0000,0.013125023,0.013120749
13.0000,0.013125007,0.013120131
14.0000,0.01312548,0.013118889
15.0000,0.013124897,0.013122348
16.0000,0.013129846,0.013123776
17.0000,0.013129967,0.013124094
18.0000,0.013124861,0.013119369
19.0000,0.013130052,0.01312465
20.0000,0.01313001,0.013124309
21.0000,0.013129958,0.01312364
22.0000,0.013129598,0.013123792
23.0000,0.013129497,0.013122861
24.0000,0.013124927,0.013120218
25.0000,0.013129897,0.013122839
26.0000,0.013124874,0.013119613
27.0000,0.013129687,0.013125909
28.0000,0.013125191,0.013120329
29.0000,0.013125481,0.013120763
30.0000,0.01312477,0.013119984
31.0000,0.013124664,0.013121799
32.0000,0.013125321,0.013120404
33.0000,0.013125611,0.013118879
34.0000,0.013124983,0.01312039
35.0000,0.013124885,0.01311959
36.0000,0.013129479,0.013124391
37.0000,0.01312953,0.013124628
38.0000,0.013124846,0.013120481
39.0000,0.013125348,0.013120884
40.0000,0.01312943,0.013123792
41.0000,0.013130085,0.013123565
42.0000,0.013130078,0.01312396
43.0000,0.013130064,0.013124069
44.0000,0.013130093,0.013123883
45.0000,0.013125137,0.013119741
46.0000,0.013125638,0.013118664
47.0000,0.013125444,0.01312096
48.0000,0.013129588,0.01312381
49.0000,0.013125631,0.013120559
50.0000,0.013125043,0.013120284
51.0000,0.013125374,0.013119936
52.0000,0.013125596,0.013120512
53.0000,0.013125563,0.013120386
54.0000,0.013130219,0.013124369
55.0000,0.013129922,0.013124673
56.0000,0.013130208,0.013123835
57.0000,0.013129668,0.013122716
58.0000,0.013130086,0.013122572
59.0000,0.013125505,0.013119614
60.0000,0.013124596,0.013120842
61.0000,0.013129969,0.013124906
62.0000,0.013130163,0.013123744
63.0000,0.013125658,0.013118979
64.0000,0.013125625,0.013120475
65.0000,0.013129756,0.013123734
66.0000,0.013124883,0.013121144
67.0000,0.013125028,0.013118907
68.0000,0.013125521,0.013120622
69.0000,0.013125563,0.013120336
70.0000,0.01313022,0.013125212
71.0000,0.013129551,0.013124357
72.0000,0.013129744,0.01312427
73.0000,0.013125491,0.013119657
74.0000,0.013125187,0.013119601
75.0000,0.013129417,0.013124986
76.0000,0.013129628,0.013123578
77.0000,0.013130086,0.013123983
78.0000,0.013125351,0.013119825
79.0000,0.013125387,0.013120835
80.0000,0.013130384,0.013124365
81.0000,0.013129705,0.013123241
82.0000,0.013125241,0.013120734
83.0000,0.013125389,0.013121024
84.0000,0.013125529,0.013120276
85.0000,0.013130207,0.013124372
86.0000,0.013129664,0.013123942
87.0000,0.013129893,0.013125176
88.0000,0.013129395,0.013123659
89.0000,0.013125587,0.013119983
90.0000,0.013129633,0.013123849
91.0000,0.013130493,0.013123367
92.0000,0.0131303,0.013122061
93.0000,0.013125086,0.013119522
94.0000,0.013129609,0.013123776
95.0000,0.013125079,0.013120148
96.0000,0.013125494,0.013120065
97.0000,0.013129732,0.013124497
98.0000,0.013124847,0.013121142
99.0000,0.013125452,0.013120753
100.0000,0.013130193,0.013122949
101.0000,0.013125287,0.013120878
102.0000,0.013124898,0.013119705
103.0000,0.013125132,0.0131201
104.0000,0.013130266,0.013123994
105.0000,0.013129784,0.013124299
106.0000,0.013125055,0.013120608
107.0000,0.013125355,0.013120631
108.0000,0.013130592,0.013121837
109.0000,0.013129595,0.013123335
110.0000,0.013129995,0.0131241
111.0000,0.013125625,0.013120399
112.0000,0.013130169,0.013123947
113.0000,0.013124555,0.013118542
114.0000,0.013130306,0.013125047
115.0000,0.013129907,0.013122936
116.0000,0.013125368,0.013120997
117.0000,0.013129665,0.013124614
118.0000,0.013124998,0.013120153
119.0000,0.01312994,0.013123658
120.0000,0.013125204,0.013120803
121.0000,0.013125101,0.013121108
122.0000,0.013124892,0.013120432
123.0000,0.013130259,0.013123515
124.0000,0.013125069,0.013120367
125.0000,0.013129712,0.013124398
126.0000,0.013130566,0.013124984
127.0000,0.013125685,0.013120621
128.0000,0.013130247,0.013123531
129.0000,0.013130341,0.013124551
130.0000,0.013130438,0.013125232
131.0000,0.013128848,0.013123037
132.0000,0.013125436,0.013120731
133.0000,0.013129918,0.01312461
134.0000,0.013129735,0.013121647
135.0000,0.013125594,0.013120668
136.0000,0.013125045,0.013120574
137.0000,0.013129792,0.013125625
138.0000,0.013125484,0.013119795
139.0000,0.01313023,0.01312404
140.0000,0.013129887,0.01312382
141.0000,0.013124965,0.013120467
142.0000,0.013129794,0.013123401
143.0000,0.013125707,0.01312058
144.0000,0.013129872,0.013125162
145.0000,0.013129782,0.013123129
146.0000,0.01312975,0.013124092
147.0000,0.01312508,0.013121155
148.0000,0.013125474,0.013121399
149.0000,0.013124991,0.013120264
150.0000,0.013125747,0.013119575
151.0000,0.013125551,0.013121061
152.0000,0.013130471,0.013125198
153.0000,0.013129974,0.013124777
154.0000,0.013130364,0.013125823
155.0000,0.013125357,0.013118991
156.0000,0.01312555,0.01312082
157.0000,0.013130366,0.01312414
158.0000,0.013125114,0.013120838
159.0000,0.013125171,0.013119006
160.0000,0.013125098,0.0131206
161.0000,0.013124418,0.013119685
162.0000,0.013125562,0.013120597
163.0000,0.013125702,0.013120763
164.0000,0.013129811,0.013124356
165.0000,0.013130395,0.013123845
166.0000,0.013130328,0.013123679
167.0000,0.013125136,0.013120697
168.0000,0.013130474,0.013123971
169.0000,0.013125048,0.013120227
170.0000,0.013125707,0.013121104
171.0000,0.013125052,0.013121608
172.0000,0.013129788,0.01312495
173.0000,0.013125264,0.013119053
174.0000,0.013125033,0.013120777
175.0000,0.013129746,0.013125609
176.0000,0.013130174,0.013123831
177.0000,0.013125641,0.013120349
178.0000,0.013124812,0.013118749
179.0000,0.013125522,0.013120857
180.0000,0.013125733,0.013120027
181.0000,0.013125583,0.013120504
182.0000,0.013125717,0.013121294
183.0000,0.013125234,0.013117991
184.0000,0.013129757,0.01312215
185.0000,0.013129841,0.013124421
186.0000,0.013125709,0.01311944
187.0000,0.013130294,0.013125146
188.0000,0.013130182,0.013124911
189.0000,0.013130182,0.013124911
190.0000,0.013130182,0.013124911
191.0000,0.013130344,0.013124617
192.0000,0.013130074,0.013126417
193.0000,0.013125021,0.0130986
194.0000,0.013125041,0.013121597
195.0000,0.01312455,0.013121379
196.0000,0.013125851,0.013120511
197.0000,0.013129756,0.013123545
198.0000,0.013125064,0.013121653
199.0000,0.013125259,0.013120529
200.0000,0.013129784,0.013123926
201.0000,0.013124944,0.013119847
202.0000,0.01312565,0.01312034
203.0000,0.01313007,0.013124176
204.0000,0.013129967,0.013124174
205.0000,0.013125184,0.013121423
206.0000,0.013129913,0.013124029
207.0000,0.013130265,0.013123263
208.0000,0.013125663,0.013120168
209.0000,0.013125102,0.013120798
210.0000,0.013125351,0.013120525
211.0000,0.013130712,0.013124021
212.0000,0.013130602,0.013124551
213.0000,0.013124974,0.013119176
214.0000,0.013125607,0.013120698
215.0000,0.013125805,0.013119784
216.0000,0.013125774,0.013118791
217.0000,0.013130469,0.013123669
218.0000,0.013130466,0.013124621
219.0000,0.013125787,0.013119839
220.0000,0.013130379,0.013123864
221.0000,0.013125575,0.013120388
222.0000,0.013130379,0.013124036
223.0000,0.013129949,0.013125104
224.0000,0.013130684,0.0131245
225.0000,0.013130429,0.013124156
226.0000,0.013129789,0.013123995
227.0000,0.013130396,0.013124091
228.0000,0.013125336,0.013120314
229.0000,0.013125594,0.013119299
230.0000,0.013125756,0.013120751
231.0000,0.013129818,0.013124202
232.0000,0.013125385,0.01312113
233.0000,0.013130463,0.013123722
234.0000,0.01313015,0.013124076
235.0000,0.013125705,0.013120098
236.0000,0.013130205,0.013125179
237.0000,0.013124582,0.013120052
238.0000,0.013125124,0.013120195
239.0000,0.013129866,0.013124241
240.0000,0.013125147,0.013120811
241.0000,0.013125732,0.01311989
242.0000,0.01312515,0.013120729
243.0000,0.013130229,0.013124518
244.0000,0.013125509,0.013119535
245.0000,0.013125118,0.013119952
246.0000,0.013130743,0.013122644
247.0000,0.013129911,0.01312431
248.0000,0.013125083,0.013120169
249.0000,0.01312563,0.013121097
250.0000,0.013125363,0.013121433
251.0000,0.013129854,0.01312354
252.0000,0.013125282,0.013122138
253.0000,0.013125484,0.013121244
254.0000,0.013130684,0.013124732
255.0000,0.013129788,0.013122493
256.0000,0.013129861,0.013126105
257.0000,0.013125072,0.013121016
258.0000,0.01312992,0.013123501
259.0000,0.013130059,0.013125554
260.0000,0.013130075,0.013123481
261.0000,0.013125555,0.013121119
262.0000,0.013125136,0.013121363
263.0000,0.013129636,0.013126248
264.0000,0.013125828,0.013121505
265.0000,0.013125664,0.01312067
266.0000,0.013125107,0.013121348
267.0000,0.013125848,0.01312246
268.0000,0.013125712,0.013120656
269.0000,0.013125603,0.013120904
270.0000,0.013125866,0.01312043
271.0000,0.013130719,0.013125866
272.0000,0.013125172,0.013120304
273.0000,0.013125174,0.013121638
274.0000,0.013129916,0.0131227
275.0000,0.013125042,0.01311946
276.0000,0.013125291,0.013120222
277.0000,0.013125786,0.013121001
278.0000,0.013125543,0.013120685
279.0000,0.013129878,0.013125215
280.0000,0.013125161,0.01312119
281.0000,0.013129747,0.013126358
282.0000,0.013125532,0.013120453
283.0000,0.01312996,0.013126012
284.0000,0.01313035,0.013124108
285.0000,0.013125279,0.013121823
286.0000,0.013130209,0.013125815
287.0000,0.013130737,0.013125305
288.0000,0.013129941,0.013123944
289.0000,0.013125153,0.013121869
290.0000,0.013130563,0.013125431
291.0000,0.013125217,0.013121426
292.0000,0.01312512,0.013121192
293.0000,0.013130003,0.013124897
294.0000,0.013125531,0.01311932
295.0000,0.013124722,0.013120039
296.0000,0.013125773,0.013120326
297.0000,0.013130372,0.013125983
298.0000,0.013130048,0.013125154
299.0000,0.013129764,0.013124354
300.0000,0.013130727,0.013125238
301.0000,0.013125637,0.013121419
302.0000,0.013129892,0.013124573
303.0000,0.013125139,0.013120019
304.0000,0.013125277,0.013119371
305.0000,0.013125314,0.013121217
306.0000,0.013125119,0.013120065
307.0000,0.013130327,0.013124211
308.0000,0.013129973,0.013123269
309.0000,0.013125762,0.013119236
310.0000,0.013130876,0.01312548
311.0000,0.013130409,0.013125008
312.0000,0.013130538,0.013121245
313.0000,0.013125186,0.01312096
314.0000,0.013130489,0.013123482
315.0000,0.013129981,0.013125058
316.0000,0.01312496,0.013120826
317.0000,0.013125099,0.013120862
318.0000,0.0131254,0.013121165
319.0000,0.013125272,0.013121227
320.0000,0.013124978,0.013121709
321.0000,0.01312511,0.013121131
322.0000,0.013130901,0.013124633
323.0000,0.013125841,0.013120774
324.0000,0.013130056,0.013121316
325.0000,0.013129992,0.013125394
326.0000,0.013125422,0.013121754
327.0000,0.013130125,0.013124795
328.0000,0.013125774,0.013121244
329.0000,0.013129951,0.013124944
330.0000,0.013130547,0.013124648
331.0000,0.013130461,0.013124209
332.0000,0.013125128,0.013120754
333.0000,0.013125204,0.013121569
334.0000,0.013125544,0.013120352
335.0000,0.013130671,0.013123815
336.0000,0.013130819,0.013123683
337.0000,0.01312571,0.013120482
338.0000,0.013125694,0.013120114
339.0000,0.013125325,0.013120152
340.0000,0.013129937,0.013126223
341.0000,0.013125245,0.013121875
342.0000,0.013125012,0.013121376
343.0000,0.013125274,0.013117662
344.0000,0.013129971,0.013125711
345.0000,0.013129962,0.013123594
346.0000,0.013125231,0.013119329
347.0000,0.013130249,0.013124882
348.0000,0.01313071,0.01312431
349.0000,0.013130047,0.013121602
350.0000,0.013130615,0.013125725
351.0000,0.013125541,0.013121192
352.0000,0.013125618,0.01312177
353.0000,0.013125835,0.013122005
354.0000,0.013130715,0.013124219
355.0000,0.013125558,0.013121854
356.0000,0.013125082,0.013122322
357.0000,0.013130496,0.013126448
358.0000,0.013125207,0.013122471
359.0000,0.01312594,0.013118928
360.0000,0.013125123,0.01312019
361.0000,0.013130172,0.013125428
362.0000,0.013130796,0.013124906
363.0000,0.013130855,0.01312431
364.0000,0.013130752,0.013123803
365.0000,0.013130343,0.01312465
366.0000,0.013125774,0.013119637
367.0000,0.013125192,0.013122199
368.0000,0.013130305,0.013123555
369.0000,0.013125829,0.013121282
370.0000,0.013125857,0.013120149
371.0000,0.013125963,0.013119937
372.0000,0.013130298,0.013123641
373.0000,0.013125221,0.01312077
374.0000,0.013130694,0.013124401
375.0000,0.013130632,0.013125375
376.0000,0.013130555,0.013125853
377.0000,0.013130116,0.013125183
378.0000,0.013125801,0.013121195
379.0000,0.013125724,0.013120972
380.0000,0.013125304,0.013122025
381.0000,0.01312591,0.013121841
382.0000,0.013125961,0.013120345
383.0000,0.013125937,0.013120851
384.0000,0.013125549,0.013121599
385.0000,0.013130115,0.013123216
386.0000,0.013130257,0.013125295
387.0000,0.013125148,0.013120403
388.0000,0.013130272,0.013125391
389.0000,0.013130303,0.013124658
390.0000,0.013125844,0.013120218
391.0000,0.01313006,0.013125685
392.0000,0.013130716,0.013124802
393.0000,0.013130899,0.01312369
394.0000,0.01312592,0.013120178
395.0000,0.013125621,0.013121014
396.0000,0.013130129,0.013124946
397.0000,0.013125666,0.01312097
398.0000,0.013125715,0.013117886
399.0000,0.013125969,0.013120648
400.0000,0.013130453,0.013125275
401.0000,0.013130611,0.013126113
402.0000,0.013125116,0.013122275
403.0000,0.0131259,0.013120623
404.0000,0.013125296,0.013120702
405.0000,0.013130565,0.013125888
406.0000,0.013124894,0.013122157
407.0000,0.013125753,0.013121767
408.0000,0.013125131,0.013120571
409.0000,0.013125185,0.013121136
410.0000,0.013130135,0.013123974
411.0000,0.01313049,0.013124769
412.0000,0.013130594,0.013125091
413.0000,0.013130801,0.013123243
414.0000,0.013125349,0.013120496
415.0000,0.01312582,0.013121735
416.0000,0.013130069,0.013123308
417.0000,0.013125806,0.013120715
418.0000,0.013125695,0.013120548
419.0000,0.013130116,0.013124368
420.0000,0.013125147,0.013121336
421.0000,0.013130071,0.013125454
422.0000,0.013130018,0.013124301
423.0000,0.01312581,0.013121664
424.0000,0.013125475,0.013120322
425.0000,0.013125372,0.013121436
426.0000,0.013125328,0.013120504
427.0000,0.013130662,0.013124399
428.0000,0.013125815,0.013120513
429.0000,0.013125703,0.013120777
430.0000,0.013125707,0.013119953
431.0000,0.013125041,0.013120293
432.0000,0.013130865,0.013124079
433.0000,0.013125669,0.013118956
434.0000,0.013125774,0.013119819
435.0000,0.013130306,0.013122718
436.0000,0.01312587,0.013120918
437.0000,0.013130541,0.013124836
438.0000,0.013125774,0.013119587
439.0000,0.013130554,0.013124819
440.0000,0.013125365,0.013119603
441.0000,0.013125338,0.013120667
442.0000,0.013125297,0.01312011
443.0000,0.013125371,0.013121395
444.0000,0.013130286,0.013124764
445.0000,0.013130659,0.013124869
446.0000,0.013125338,0.013119679
447.0000,0.013130027,0.013124457
448.0000,0.013129978,0.013122309
449.0000,0.013129929,0.013124198
450.0000,0.013130237,0.013123976
451.0000,0.013130255,0.013124801
452.0000,0.013125514,0.013120028
453.0000,0.013130676,0.013123746
454.0000,0.013125212,0.013119658
455.0000,0.013130664,0.013124355
456.0000,0.013130243,0.013124426
457.0000,0.013130249,0.013123429
458.0000,0.013130206,0.013124472
459.0000,0.0131257,0.013120885
460.0000,0.013125337,0.01312002
461.0000,0.013125853,0.013120975
462.0000,0.013130531,0.013124171
463.0000,0.013130044,0.013124445
464.0000,0.013130012,0.013124918
465.0000,0.013130836,0.013124115
466.0000,0.013130674,0.013124311
467.0000,0.013125151,0.013120529
468.0000,0.013125428,0.013121058
469.0000,0.013130617,0.013124751
470.0000,0.013125878,0.013119993
471.0000,0.013130548,0.013124122
472.0000,0.013130281,0.013123865
473.0000,0.013125848,0.01312039
474.0000,0.013130151,0.013123265
475.0000,0.013125772,0.013120497
476.0000,0.013125347,0.013120209
477.0000,0.013129448,0.01312372
478.0000,0.013125613,0.013120413
479.0000,0.013125769,0.013119828
480.0000,0.013130154,0.013124202
481.0000,0.013130189,0.013123515
482.0000,0.013130858,0.013124205
483.0000,0.013125755,0.013120692
484.0000,0.013130923,0.013124912
485.0000,0.013125444,0.013120542
486.0000,0.01313022,0.013124905
487.0000,0.013125963,0.013120009
488.0000,0.013125807,0.013120114
489.0000,0.013130371,0.013125067
490.0000,0.013130662,0.013124284
491.0000,0.013125475,0.013120885
492.0000,0.013130827,0.013123945
493.0000,0.013125136,0.013120886
494.0000,0.013126015,0.013120002
495.0000,0.013130744,0.013123747
496.0000,0.013130227,0.013124527
497.0000,0.013130322,0.01312464
498.0000,0.013125699,0.013119904
499.0000,0.013125261,0.013119862
500.0000,0.013130285,0.013124278
501.0000,0.013125206,0.013119692
502.0000,0.013125239,0.013121021
503.0000,0.013130251,0.013125033
504.0000,0.013125135,0.013118898
505.0000,0.013130421,0.013125462
506.0000,0.01313024,0.013123167
507.0000,0.013125754,0.013121216
508.0000,0.013130615,0.01312444
509.0000,0.013125974,0.013120751
510.0000,0.013125791,0.013120298
511.0000,0.013125062,0.013120418
512.0000,0.013130725,0.01312429
513.0000,0.013125829,0.013120036
514.0000,0.013130005,0.013124191
515.0000,0.013130335,0.013125226
516.0000,0.013125737,0.013121014
517.0000,0.013125445,0.01312041
518.0000,0.013130124,0.013125135
519.0000,0.013130312,0.013123158
520.0000,0.013130168,0.013124878
521.0000,0.013125876,0.013121025
522.0000,0.013130171,0.013124724
523.0000,0.013125462,0.013120589
524.0000,0.013130574,0.013124745
525.0000,0.01313032,0.013124679
526.0000,0.013125344,0.013120013
527.0000,0.013130198,0.013124047
528.0000,0.013125489,0.013119647
529.0000,0.013125934,0.013119937
530.0000,0.013125549,0.01312065
531.0000,0.01312537,0.013120384
532.0000,0.013130345,0.013124965
533.0000,0.013125396,0.013121233
534.0000,0.013130622,0.01312597
535.0000,0.013125838,0.013119961
536.0000,0.013130906,0.013123634
537.0000,0.013125652,0.013120707
538.0000,0.013130722,0.013125735
539.0000,0.013130913,0.013124469
540.0000,0.013125699,0.013120438
541.0000,0.013125784,0.013121131
542.0000,0.013130764,0.013125403
543.0000,0.013125614,0.013121156
544.0000,0.013130045,0.013124265
545.0000,0.013130714,0.013122916
546.0000,0.013125199,0.013120851
547.0000,0.013125468,0.013120703
548.0000,0.013125683,0.013120843
549.0000,0.013130851,0.01312417
550.0000,0.013125706,0.01311863
551.0000,0.013125392,0.013121009
552.0000,0.013125962,0.013120286
553.0000,0.013125852,0.013120559
554.0000,0.013130934,0.013125665
555.0000,0.013130171,0.013125351
556.0000,0.013125887,0.013119004
557.0000,0.013125377,0.01312123
558.0000,0.013130762,0.013125536
559.0000,0.013130581,0.013124304
560.0000,0.013130748,0.013125288
561.0000,0.013125641,0.013120708
562.0000,0.013130937,0.013124615
563.0000,0.013130355,0.013124717
564.0000,0.013130573,0.013124538
565.0000,0.013125292,0.013119827
566.0000,0.013130989,0.013123363
567.0000,0.013125754,0.013120392
568.0000,0.013130343,0.013125127
569.0000,0.01313075,0.013124183
570.0000,0.013130301,0.013123076
571.0000,0.01312576,0.013119298
572.0000,0.013130345,0.013124911
573.0000,0.013125377,0.013120781
574.0000,0.013130801,0.013121954
575.0000,0.013130156,0.013124526
576.0000,0.013130147,0.013123766
577.0000,0.013130942,0.013124542
578.0000,0.013125364,0.013120798
579.0000,0.013130669,0.013124763
580.0000,0.013130739,0.013124867
581.0000,0.013130988,0.013124246
582.0000,0.013125314,0.013121652
583.0000,0.013125481,0.013119813
584.0000,0.013130817,0.01312557
585.0000,0.013130872,0.013124061
586.0000,0.013131028,0.013124743
587.0000,0.013125193,0.013119843
588.0000,0.01312546,0.013121102
589.0000,0.013125342,0.013120834
590.0000,0.013125962,0.013120328
591.0000,0.013126004,0.013120937
592.0000,0.013125404,0.013119399
593.0000,0.013125439,0.013120807
594.0000,0.013130379,0.013125568
595.0000,0.013130258,0.013124092
596.0000,0.01313022,0.013125041
597.0000,0.013131008,0.013123943
598.0000,0.013125583,0.01312012
599.0000,0.013131044,0.013124212
600.0000,0.01312541,0.013120214
601.0000,0.013125446,0.01312035
602.0000,0.013125489,0.013120958
603.0000,0.013130509,0.01312431
604.0000,0.013125933,0.013120232
605.0000,0.013125615,0.013121299
606.0000,0.013125415,0.013120193
607.0000,0.013131026,0.013123918
608.0000,0.013125325,0.013120035
609.0000,0.013130817,0.013123693
610.0000,0.013125978,0.013120867
611.0000,0.013125435,0.013120363
612.0000,0.013125464,0.013120219
613.0000,0.013125919,0.01312058
614.0000,0.013130924,0.01312434
615.0000,0.013125921,0.013121491
616.0000,0.013130889,0.013124943
617.0000,0.013125932,0.013120822
618.0000,0.013130501,0.013125092
619.0000,0.013130879,0.013124937
620.0000,0.013131151,0.013123889
621.0000,0.013130345,0.013125343
622.0000,0.013125605,0.013120047
623.0000,0.013130482,0.013124807
624.0000,0.013130331,0.013124515
625.0000,0.013125919,0.013120173
626.0000,0.013130371,0.01312614
627.0000,0.01312531,0.013120124
628.0000,0.013130822,0.013123322
629.0000,0.013126016,0.013121639
630.0000,0.01313024,0.013124259
631.0000,0.013130825,0.013125572
632.0000,0.013130908,0.013125152
633.0000,0.013130817,0.013124784
634.0000,0.013130262,0.013125392
635.0000,0.013125908,0.01312118
636.0000,0.013130822,0.013124233
637.0000,0.013130345,0.013125665
638.0000,0.013130954,0.01312295
639.0000,0.013130925,0.01312514
640.0000,0.013125869,0.01311995
641.0000,0.013125754,0.013120559
642.0000,0.013125426,0.013121388
643.0000,0.013125775,0.013120302
644.0000,0.013125284,0.013120263
645.0000,0.013125799,0.013120991
646.0000,0.013125684,0.013120978
647.0000,0.013130771,0.013124011
648.0000,0.013130627,0.013125016
649.0000,0.013130371,0.013124241
650.0000,0.013125918,0.013119832
651.0000,0.013125652,0.013119634
652.0000,0.013125301,0.013121512
653.0000,0.013125302,0.013120932
654.0000,0.013126018,0.013120659
655.0000,0.013125407,0.013120965
656.0000,0.013130452,0.013124465
657.0000,0.013130807,0.01312446
658.0000,0.013131008,0.013123992
659.0000,0.013125922,0.01312101
660.0000,0.01313093,0.013125059
661.0000,0.013125333,0.013120156
662.0000,0.013125529,0.013119422
663.0000,0.013125569,0.01312151
664.0000,0.013130625,0.013125081
665.0000,0.013130334,0.013124004
666.0000,0.013131104,0.01312451
667.0000,0.013125296,0.013119474
668.0000,0.013125898,0.013121312
669.0000,0.013125413,0.013121203
670.0000,0.013130927,0.013123135
671.0000,0.013131018,0.013124459
672.0000,0.01312556,0.013121512
673.0000,0.01313103,0.013125468
674.0000,0.013130409,0.013124769
675.0000,0.013125973,0.013121082
676.0000,0.013125985,0.013120609
677.0000,0.013126238,0.013120608
678.0000,0.013130095,0.013124562
679.0000,0.013131108,0.013124863
680.0000,0.013125454,0.013120896
681.0000,0.013125943,0.013120492
682.0000,0.013125473,0.013121154
683.0000,0.01313101,0.013125689
684.0000,0.013125513,0.013120507
685.0000,0.013126324,0.013120149
686.0000,0.01312571,0.013120461
687.0000,0.013130348,0.013124995
688.0000,0.013125869,0.013119289
689.0000,0.01313092,0.013125594
690.0000,0.013126076,0.013120423
691.0000,0.01313054,0.013124421
692.0000,0.013130457,0.013124908
693.0000,0.01312553,0.01312089
694.0000,0.013126118,0.013120441
695.0000,0.013130836,0.013124918
696.0000,0.013125415,0.013120394
697.0000,0.013131003,0.013124421
698.0000,0.01312533,0.013120743
699.0000,0.013131022,0.013123953
700.0000,0.013126085,0.013120796
701.0000,0.013131109,0.013124785
702.0000,0.013125602,0.013120105
703.0000,0.013125492,0.013120483
704.0000,0.013130894,0.013125399
705.0000,0.013130946,0.013123108
706.0000,0.013125998,0.013121303
707.0000,0.013130662,0.013124273
708.0000,0.013125957,0.013120423
709.0000,0.013130332,0.013123972
710.0000,0.013125722,0.013120598
711.0000,0.013125338,0.01311917
712.0000,0.013126159,0.013120749
713.0000,0.013130453,0.013125057
714.0000,0.013130384,0.013124844
715.0000,0.013130601,0.013124169
716.0000,0.013130573,0.013123908
717.0000,0.013126162,0.013120599
718.0000,0.013131136,0.013124472
719.0000,0.013131029,0.013125587
720.0000,0.013125865,0.013120887
721.0000,0.013131025,0.013123429
722.0000,0.01312599,0.013120936
723.0000,0.013125516,0.013121419
724.0000,0.013125814,0.013121437
725.0000,0.013125698,0.013120951
726.0000,0.013130457,0.013122835
727.0000,0.013130988,0.013124304
728.0000,0.013125415,0.013120875
729.0000,0.013125447,0.013120892
730.0000,0.013131109,0.01312527
731.0000,0.01313091,0.013125902
732.0000,0.013130649,0.01312459
733.0000,0.013125844,0.013120723
734.0000,0.0131314,0.013124205
735.0000,0.013130708,0.013123439
736.0000,0.01312547,0.013120813
737.0000,0.013126159,0.013120597
738.0000,0.013130683,0.013123663
739.0000,0.013125457,0.01312077
740.0000,0.013125569,0.013120338
741.0000,0.013126167,0.013119813
742.0000,0.01312559,0.013120763
743.0000,0.013131176,0.013125141
744.0000,0.013130981,0.013125299
745.0000,0.013126041,0.013120544
746.0000,0.013126018,0.01312104
747.0000,0.013125714,0.013121187
748.0000,0.013126133,0.013120231
749.0000,0.013130689,0.013124205
750.0000,0.01312549,0.013120771
751.0000,0.013131263,0.013124136
752.0000,0.013131114,0.013123336
753.0000,0.013131159,0.013125519
754.0000,0.01313028,0.013125568
755.0000,0.013125422,0.013119926
756.0000,0.013130726,0.013124981
757.0000,0.013130534,0.013125713
758.0000,0.013125744,0.013121613
759.0000,0.013126045,0.013121382
760.0000,0.013126049,0.013121353
761.0000,0.013125447,0.013120262
762.0000,0.013125542,0.013119899
763.0000,0.013125995,0.013119798
764.0000,0.013130449,0.013123756
765.0000,0.013131054,0.013124811
766.0000,0.013125554,0.013120218
767.0000,0.013130247,0.013122987
768.0000,0.013125422,0.013120926
769.0000,0.013125553,0.013120511
770.0000,0.013126099,0.013120522
771.0000,0.013131022,0.01312457
772.0000,0.013126067,0.013121005
773.0000,0.01313108,0.013126045
774.0000,0.013126099,0.013120592
775.0000,0.013131278,0.01312452
776.0000,0.013131116,0.013123256
777.0000,0.013126004,0.013121139
778.0000,0.013131173,0.013124752
779.0000,0.013130941,0.013123554
780.0000,0.013126242,0.0131195
781.0000,0.013125706,0.013121721
782.0000,0.013126002,0.013120743
783.0000,0.013130762,0.013124975
784.0000,0.013125598,0.013119731
785.0000,0.013125999,0.013121701
786.0000,0.013130995,0.013124205
787.0000,0.013125445,0.01312136
788.0000,0.013126064,0.013120827
789.0000,0.013130629,0.013125105
790.0000,0.013125442,0.013121109
791.0000,0.013125471,0.01312047
792.0000,0.013125722,0.013120783
793.0000,0.01313051,0.013124299
794.0000,0.013130863,0.013123774
795.0000,0.013130614,0.013123992
796.0000,0.013126067,0.013121043
797.0000,0.013125636,0.013121631
798.0000,0.013130698,0.013124574
799.0000,0.013130569,0.013124997
800.0000,0.013125879,0.013121928
801.0000,0.013126108,0.013121896
802.0000,0.013131191,0.013125688
803.0000,0.013126046,0.013120986
804.0000,0.013130338,0.013125332
805.0000,0.013125466,0.013120916
806.0000,0.013126236,0.013119522
807.0000,0.013131329,0.013124955
808.0000,0.013130949,0.013123337
809.0000,0.013130774,0.013124644
810.0000,0.013130853,0.013124499
811.0000,0.013130325,0.013123352
812.0000,0.013125575,0.01312038
813.0000,0.013125557,0.013120868
814.0000,0.013130602,0.013124953
815.0000,0.013125349,0.013121404
816.0000,0.013125457,0.013119582
817.0000,0.013131113,0.01312643
818.0000,0.013125712,0.013121303
819.0000,0.013130805,0.013124104
820.0000,0.013125787,0.013121609
821.0000,0.013125914,0.013119925
822.0000,0.013130287,0.013124382
823.0000,0.013126203,0.013121066
824.0000,0.01312625,0.013120675
825.0000,0.013125717,0.01312001
826.0000,0.013126212,0.013119946
827.0000,0.013125877,0.013121019
828.0000,0.013131448,0.013124684
829.0000,0.013125696,0.013120769
830.0000,0.013125638,0.013119684
831.0000,0.01312593,0.013120771
832.0000,0.013125763,0.013120681
833.0000,0.01312604,0.01312089
834.0000,0.013131252,0.013125436
835.0000,0.013130365,0.013124376
836.0000,0.013126177,0.013119395
837.0000,0.013131033,0.013124517
838.0000,0.013131279,0.013125096
839.0000,0.013125639,0.013121294
840.0000,0.013131446,0.013124981
841.0000,0.013131162,0.013124254
842.0000,0.0131261,0.013120409
843.0000,0.013126134,0.013120401
844.0000,0.013125596,0.013119832
845.0000,0.013125495,0.013120208
846.0000,0.013131162,0.013124564
847.0000,0.013126137,0.013120691
848.0000,0.013130657,0.013123918
849.0000,0.013130683,0.013124092
850.0000,0.013131205,0.0131248
851.0000,0.0131311,0.013123211
852.0000,0.013130508,0.013124611
853.0000,0.013125548,0.013121466
854.0000,0.01313128,0.013125398
855.0000,0.013125665,0.013120027
856.0000,0.013130715,0.013125028
857.0000,0.013126194,0.013120152
858.0000,0.013130675,0.013124717
859.0000,0.013125873,0.013120824
860.0000,0.013130526,0.013123957
861.0000,0.013125714,0.013120132
862.0000,0.013130654,0.013124596
863.0000,0.013130924,0.013125744
864.0000,0.013125655,0.013122019
865.0000,0.013130778,0.013125499
866.0000,0.013131076,0.013124986
867.0000,0.013125504,0.013121077
868.0000,0.013130892,0.013124735
869.0000,0.013125551,0.013120613
870.0000,0.013130683,0.013125317
871.0000,0.013125708,0.013120427
872.0000,0.013130636,0.013123889
873.0000,0.01312554,0.013119927
874.0000,0.013130601,0.01312417
875.0000,0.013130726,0.013125245
876.0000,0.013125669,0.01312042
877.0000,0.013125681,0.013120701
878.0000,0.01312555,0.013121251
879.0000,0.013130538,0.013124015
880.0000,0.013126151,0.0131213
881.0000,0.013126052,0.013120389
882.0000,0.013125612,0.013120996
883.0000,0.013126026,0.013119483
884.0000,0.013126077,0.013121145
885.0000,0.013126271,0.013120409
886.0000,0.013125772,0.01312048
887.0000,0.01312567,0.013120207
888.0000,0.013131123,0.013123605
889.0000,0.013125675,0.013120908
890.0000,0.013130789,0.013125219
891.0000,0.013125617,0.013121078
892.0000,0.013126374,0.013119147
893.0000,0.013126152,0.01312163
894.0000,0.013125321,0.013120891
895.0000,0.013130907,0.013125447
896.0000,0.013125599,0.013121448
897.0000,0.013131084,0.013125524
898.0000,0.013131282,0.013125565
899.0000,0.013130964,0.013124204
900.0000,0.01312565,0.013120614
901.0000,0.013125882,0.013119968
902.0000,0.013126087,0.013121206
903.0000,0.013131198,0.013123612
904.0000,0.013130916,0.013124032
905.0000,0.013130853,0.013123881
906.0000,0.01312639,0.013120768
907.0000,0.013130789,0.013123785
908.0000,0.013125838,0.013120079
909.0000,0.013131583,0.013126404
910.0000,0.013131061,0.013125501
911.0000,0.01313043,0.013123346
912.0000,0.013130669,0.013125179
913.0000,0.013130684,0.013125037
914.0000,0.013130856,0.013124583
915.0000,0.013131315,0.01312418
916.0000,0.013131372,0.013124841
917.0000,0.013131234,0.013125597
918.0000,0.013125842,0.013120547
919.0000,0.013125724,0.013120525
920.0000,0.013125671,0.013120142
921.0000,0.013125581,0.013121966
922.0000,0.013126353,0.013121251
923.0000,0.013125628,0.013120532
924.0000,0.013125562,0.013121571
925.0000,0.013126116,0.013120789
926.0000,0.013125655,0.013120692
927.0000,0.013130703,0.013125694
928.0000,0.013126033,0.013121361
929.0000,0.013131099,0.013124125
930.0000,0.013125546,0.013120996
931.0000,0.013125462,0.013120579
932.0000,0.013125753,0.013121461
933.0000,0.013125722,0.013121365
934.0000,0.013126068,0.013120143
935.0000,0.013126228,0.013120628
936.0000,0.013125324,0.013119676
937.0000,0.01313089,0.013125228
938.0000,0.013130686,0.013124234
939.0000,0.01312601,0.01311926
940.0000,0.013126184,0.013120615
941.0000,0.013126237,0.013121163
942.0000,0.013126038,0.013120921
943.0000,0.013125715,0.013119582
944.0000,0.013130656,0.013125283
945.0000,0.013125602,0.013120085
946.0000,0.013125896,0.013118299
947.0000,0.013130782,0.013124768
948.0000,0.013130697,0.013123869
949.0000,0.013126272,0.013120393
950.0000,0.013130609,0.013125808
951.0000,0.01313085,0.013125145
952.0000,0.013130929,0.013125082
953.0000,0.01313079,0.013123276
954.0000,0.013131331,0.013125321
955.0000,0.013126021,0.013120343
956.0000,0.013125686,0.013121682
957.0000,0.013126273,0.013120506
958.0000,0.013131512,0.01312355
959.0000,0.013130892,0.013124724
960.0000,0.013131298,0.013124425
961.0000,0.013131232,0.013126196
962.0000,0.0131258,0.013121013
963.0000,0.013125663,0.013120571
964.0000,0.013126357,0.013120415
965.0000,0.013131364,0.013123286
966.0000,0.0131257,0.013120401
967.0000,0.013131383,0.013125276
968.0000,0.013126344,0.013120355
969.0000,0.013131592,0.013125189
970.0000,0.013125892,0.013120679
971.0000,0.013131477,0.013124639
972.0000,0.013130644,0.01312321
973.0000,0.01312547,0.013120702
974.0000,0.01312534,0.013119989
975.0000,0.013125583,0.013120868
976.0000,0.013126117,0.013120866
977.0000,0.013126162,0.013120162
978.0000,0.013125635,0.013120428
979.0000,0.013131845,0.013125851
980.0000,0.013126295,0.013119261
981.0000,0.013125407,0.013120661
982.0000,0.013131436,0.013124601
983.0000,0.013131246,0.013124757
984.0000,0.013130888,0.013125161
985.0000,0.013130791,0.013125093
986.0000,0.013130846,0.013125238
987.0000,0.013126257,0.013120459
988.0000,0.013126318,0.013120097
989.0000,0.013131324,0.013125339
990.0000,0.013125733,0.013121525
991.0000,0.013131325,0.013124962
992.0000,0.013126266,0.013121081
993.0000,0.0131314,0.013123942
994.0000,0.013131116,0.013125187
995.0000,0.013131402,0.013125273
996.0000,0.013130756,0.01312487
997.0000,0.01313132,0.013124289
998.0000,0.013130306,0.013123106
999.0000,0.01313132,0.013124669
1000.0000,0.01312568,0.013120341
1001.0000,0.013125735,0.013120192
1002.0000,0.013131392,0.013126385
1003.0000,0.013125572,0.013120773
1004.0000,0.013131213,0.013124913
1005.0000,0.013125516,0.013122147
1006.0000,0.013126195,0.013121392
1007.0000,0.013131402,0.013123566
1008.0000,0.013131272,0.013125328
1009.0000,0.013126244,0.013120761
1010.0000,0.013131117,0.013123233
1011.0000,0.013131299,0.013125078
1012.0000,0.013125565,0.013120859
1013.0000,0.013125898,0.013120935
1014.0000,0.013131562,0.013126175
1015.0000,0.013131021,0.013125202
1016.0000,0.013125633,0.013120676
1017.0000,0.013131491,0.013124284
1018.0000,0.013131537,0.013125353
1019.0000,0.013130993,0.013124431
1020.0000,0.013126587,0.013120354
1021.0000,0.013130755,0.013125011
1022.0000,0.013125977,0.013120325
1023.0000,0.013131618,0.013124476
1024.0000,0.013130926,0.013125586
1025.0000,0.01312575,0.013121395
1026.0000,0.013130685,0.013125565
1027.0000,0.013125943,0.01312066
1028.0000,0.013125576,0.013122267
1029.0000,0.013125379,0.013119294
1030.0000,0.013125598,0.013122541
1031.0000,0.013130741,0.013125186
1032.0000,0.013125605,0.013118268
1033.0000,0.013125923,0.013121184
1034.0000,0.013126126,0.01312251
1035.0000,0.01313106,0.013126766
1036.0000,0.013130969,0.013125123
1037.0000,0.013131023,0.013125901
1038.0000,0.013126121,0.013121083
1039.0000,0.013125764,0.013122442
1040.0000,0.013131483,0.013122812
1041.0000,0.013131321,0.013125716
1042.0000,0.013130922,0.013126729
1043.0000,0.013131549,0.013125837
1044.0000,0.013125989,0.013121688
1045.0000,0.013125611,0.013120339
1046.0000,0.013131271,0.013125298
1047.0000,0.013130645,0.013124616
1048.0000,0.013130944,0.013124811
1049.0000,0.013126018,0.013121365
1050.0000,0.013126211,0.013120006
1051.0000,0.013125961,0.013121173
1052.0000,0.013130872,0.013125118
1053.0000,0.013130843,0.013124137
1054.0000,0.013125813,0.013121147
1055.0000,0.013131469,0.013125641
1056.0000,0.013125983,0.01312086
1057.0000,0.013126299,0.01312073
1058.0000,0.013126191,0.013121764
1059.0000,0.013125662,0.013121983
1060.0000,0.013131488,0.013125574
1061.0000,0.013125665,0.013120366
1062.0000,0.013131352,0.013124355
1063.0000,0.013126307,0.013120831
1064.0000,0.013131501,0.013126162
1065.0000,0.01313145,0.013123147
1066.0000,0.013130883,0.013124998
1067.0000,0.013125398,0.01312115
1068.0000,0.013125758,0.013120985
1069.0000,0.013131421,0.013124045
1070.0000,0.013125912,0.013120619
1071.0000,0.013130956,0.013123536
1072.0000,0.013125785,0.013121015
1073.0000,0.013131209,0.013125172
1074.0000,0.013125556,0.013120812
1075.0000,0.013130889,0.013123984
1076.0000,0.013130657,0.013125649
1077.0000,0.013125972,0.013122187
1078.0000,0.013125737,0.013120027
1079.0000,0.013125813,0.013121146
1080.0000,0.013126216,0.0131214
1081.0000,0.013126021,0.013120796
1082.0000,0.013131498,0.013124007
1083.0000,0.013125786,0.013121543
1084.0000,0.013131179,0.013125122
1085.0000,0.013125733,0.013120186
1086.0000,0.013126129,0.013119211
1087.0000,0.013126304,0.013120765
1088.0000,0.013131061,0.013124106
1089.0000,0.013126382,0.013121597
1090.0000,0.013126237,0.013121357
1091.0000,0.013126198,0.013120266
1092.0000,0.013130895,0.013124873
1093.0000,0.013125544,0.013120452
1094.0000,0.013130598,0.013124576
1095.0000,0.013130809,0.013124645
1096.0000,0.013130904,0.013125044
1097.0000,0.013125783,0.013120123
1098.0000,0.013130979,0.013125748
1099.0000,0.013125722,0.013121715
1100.0000,0.013126364,0.013121095
1101.0000,0.013125702,0.013121731
1102.0000,0.013130932,0.013123685
1103.0000,0.013125692,0.013121421
1104.0000,0.013126374,0.013121384
1105.0000,0.013126458,0.013119685
1106.0000,0.013125592,0.01312068
1107.0000,0.013131494,0.013124237
1108.0000,0.013126255,0.013121427
1109.0000,0.013125485,0.013121028
1110.0000,0.013125418,0.013120179
1111.0000,0.013131081,0.013125276
1112.0000,0.013125739,0.013120881
1113.0000,0.013130687,0.01312516
1114.0000,0.013126424,0.013121112
1115.0000,0.013131365,0.013125355
1116.0000,0.013126164,0.013120576
1117.0000,0.013131523,0.0131229
1118.0000,0.013131453,0.01312494
1119.0000,0.013131582,0.01312612
1120.0000,0.013130856,0.013125179
1121.0000,0.013131266,0.013124919
1122.0000,0.013131608,0.013125442
1123.0000,0.013126489,0.013121725
1124.0000,0.013126343,0.01312157
1125.0000,0.013126479,0.013120272
1126.0000,0.013131409,0.013124879
1127.0000,0.01312576,0.013120512
1128.0000,0.013125907,0.013120975
1129.0000,0.013131317,0.013124777
1130.0000,0.013131645,0.013124198
1131.0000,0.013130786,0.013124283
1132.0000,0.013130753,0.013125998
1133.0000,0.0131313,0.013124935
1134.0000,0.013131572,0.013125333
1135.0000,0.013125869,0.013119163
1136.0000,0.013131381,0.01312436
1137.0000,0.013126387,0.013120912
1138.0000,0.013130939,0.013126329
1139.0000,0.01313163,0.013125204
1140.0000,0.013126267,0.013121918
1141.0000,0.013125665,0.013120263
1142.0000,0.013125708,0.013121428
1143.0000,0.013131091,0.01312516
1144.0000,0.013125806,0.013120674
1145.0000,0.01313104,0.01312507
1146.0000,0.013130557,0.013123174
1147.0000,0.013125863,0.013121394
1148.0000,0.013125609,0.013122074
1149.0000,0.013126391,0.013121271
1150.0000,0.013125793,0.013119563
1151.0000,0.013126428,0.013121342
1152.0000,0.01313136,0.013125027
1153.0000,0.013125133,0.013118918
1154.0000,0.013131493,0.013124407
1155.0000,0.013130933,0.013125523
1156.0000,0.013125733,0.013121217
1157.0000,0.013130993,0.013124349
1158.0000,0.013130994,0.013124846
1159.0000,0.013130956,0.013123843
1160.0000,0.013131109,0.013125855
1161.0000,0.013131518,0.013125671
1162.0000,0.013125752,0.013120473
1163.0000,0.013125797,0.013121122
1164.0000,0.013126056,0.013120511
1165.0000,0.013126334,0.013120997
1166.0000,0.013131608,0.013125869
1167.0000,0.013125804,0.013120731
1168.0000,0.013131123,0.013125294
1169.0000,0.013131589,0.013123168
1170.0000,0.013126331,0.013121592
1171.0000,0.01313103,0.013123665
1172.0000,0.013131047,0.013125046
1173.0000,0.013126391,0.013121076
1174.0000,0.013126257,0.013120135
1175.0000,0.013126459,0.013121042
1176.0000,0.013125834,0.013121034
1177.0000,0.013130889,0.013125749
1178.0000,0.013131405,0.013125658
1179.0000,0.013131564,0.013124672
1180.0000,0.013131309,0.013125145
1181.0000,0.01312564,0.013120752
1182.0000,0.01313116,0.013125654
1183.0000,0.013131445,0.013123393
1184.0000,0.013125779,0.013120365
1185.0000,0.013130958,0.013123036
1186.0000,0.013131448,0.013124525
1187.0000,0.013131117,0.013125103
1188.0000,0.013126357,0.013121189
1189.0000,0.013126195,0.013120766
1190.0000,0.013126237,0.013120808
1191.0000,0.013130919,0.01312561
1192.0000,0.013131564,0.013125952
1193.0000,0.013126101,0.013121015
1194.0000,0.013125946,0.013121
1195.0000,0.013126146,0.013121278
1196.0000,0.013126401,0.013120932
1197.0000,0.013125704,0.013121453
1198.0000,0.013131609,0.013125937
1199.0000,0.013126382,0.013121075
1200.0000,0.013125775,0.013120429
1201.0000,0.013125853,0.013120531
1202.0000,0.013131612,0.013126406
1203.0000,0.013125831,0.013120987
1204.0000,0.013125946,0.013119837
1205.0000,0.013131226,0.013125653
1206.0000,0.013131016,0.013125314
1207.0000,0.013130961,0.013124794
1208.0000,0.013126197,0.013120719
1209.0000,0.013125487,0.013121095
1210.0000,0.013131049,0.013124851
1211.0000,0.013126248,0.013122105
1212.0000,0.013131018,0.013126574
1213.0000,0.01313104,0.013125298
1214.0000,0.013126252,0.013120961
1215.0000,0.013131279,0.013124806
1216.0000,0.013125836,0.013120632
1217.0000,0.013126222,0.013119103
1218.0000,0.013130995,0.013123523
1219.0000,0.013126433,0.013121282
1220.0000,0.013125842,0.013121495
1221.0000,0.013131537,0.013125063
1222.0000,0.013126061,0.013119848
1223.0000,0.013131537,0.013124268
1224.0000,0.013131554,0.013123889
1225.0000,0.013131613,0.013126229
1226.0000,0.013125787,0.013120699
1227.0000,0.01313149,0.01312438
1228.0000,0.013125704,0.013120604
1229.0000,0.013126368,0.013120292
1230.0000,0.013131511,0.013124868
