subject_id,date,detector,bin_start_s,frac_dark
P01,2024-09-27,6,0.0,0.0
P01,2024-09-27,6,5.0,0.0
P01,2024-09-27,6,10.0,0.0
P01,2024-09-27,6,15.0,0.0
P01,2024-09-27,6,20.0,0.0
P01,2024-09-27,6,25.0,0.0
P01,2024-09-27,6,30.0,0.0
P01,2024-09-27,6,35.0,0.0
P01,2024-09-27,6,40.0,0.0
P01,2024-09-27,6,45.0,0.0
P01,2024-09-27,6,50.0,0.0
P01,2024-09-27,6,55.0,0.0
P01,2024-09-27,6,60.0,0.0
P01,2024-09-27,6,65.0,0.0
P01,2024-09-27,6,70.0,0.0
P01,2024-09-27,6,75.0,0.0
P01,2024-09-27,6,80.0,0.0
P01,2024-09-27,6,85.0,0.0
P01,2024-09-27,6,90.0,0.0
P01,2024-09-27,6,95.0,0.0
P01,2024-09-27,6,100.0,0.0
P01,2024-09-27,6,105.0,0.0
P01,2024-09-27,6,110.0,0.0
P01,2024-09-27,6,115.0,0.0
P01,2024-09-27,6,120.0,0.0
P01,2024-09-27,6,125.0,0.0
P01,2024-09-27,6,130.0,0.0
P01,2024-09-27,6,135.0,0.0
P01,2024-09-27,6,140.0,0.0
P01,2024-09-27,6,145.0,0.0
P01,2024-09-27,6,150.0,0.0
P01,2024-09-27,6,155.0,0.0
P01,2024-09-27,6,160.0,0.0
P01,2024-09-27,6,165.0,0.0
P01,2024-09-27,6,170.0,0.0
P01,2024-09-27,6,175.0,0.0
P01,2024-09-27,6,180.0,0.0
P01,2024-09-27,6,185.0,0.0
P01,2024-09-27,6,190.0,0.0
P01,2024-09-27,6,195.0,0.0
P01,2024-09-27,6,200.0,0.0
P01,2024-09-27,6,205.0,0.0
P01,2024-09-27,6,210.0,0.0
P01,2024-09-27,6,215.0,0.0
P01,2024-09-27,6,220.0,0.0
P01,2024-09-27,6,225.0,0.0
P01,2024-09-27,6,230.0,0.0
P01,2024-09-27,6,235.0,0.0
P01,2024-09-27,6,240.0,0.0
P01,2024-09-27,6,245.0,0.0
P01,2024-09-27,6,250.0,0.0
P01,2024-09-27,6,255.0,0.0
P01,2024-09-27,6,260.0,0.0
P01,2024-09-27,6,265.0,0.0
P01,2024-09-27,6,270.0,0.0
P01,2024-09-27,6,275.0,0.0
P01,2024-09-27,6,280.0,0.0
P01,2024-09-27,6,285.0,0.0
P01,2024-09-27,6,290.0,0.0
P01,2024-09-27,6,295.0,0.0
P01,2024-09-27,6,300.0,0.0
P01,2024-09-27,6,305.0,0.0
P01,2024-09-27,6,310.0,0.0
P01,2024-09-27,6,315.0,0.0
P01,2024-09-27,6,320.0,0.0
P01,2024-09-27,6,325.0,0.0
P01,2024-09-27,6,330.0,0.0
P01,2024-09-27,6,335.0,0.0
P01,2024-09-27,6,340.0,0.0
P01,2024-09-27,6,345.0,0.0
P01,2024-09-27,6,350.0,0.0
P01,2024-09-27,6,355.0,0.0
P01,2024-09-27,6,360.0,0.0
P01,2024-09-27,6,365.0,0.0
P01,2024-09-27,6,370.0,0.0
P01,2024-09-27,6,375.0,0.0
P01,2024-09-27,6,380.0,0.0
P01,2024-09-27,6,385.0,0.0
P01,2024-09-27,6,390.0,0.0
P01,2024-09-27,6,395.0,0.0
P01,2024-09-27,6,400.0,0.0
P01,2024-09-27,6,405.0,0.0
P01,2024-09-27,6,410.0,0.0
P01,2024-09-27,6,415.0,0.0
P01,2024-09-27,6,420.0,0.0
P01,2024-09-27,6,425.0,0.0
P01,2024-09-27,6,430.0,0.0
P01,2024-09-27,6,435.0,0.0
P01,2024-09-27,6,440.0,0.0
P01,2024-09-27,6,445.0,0.0
P01,2024-09-27,6,450.0,0.0
P01,2024-09-27,6,455.0,0.0
P01,2024-09-27,6,460.0,0.0
P01,2024-09-27,6,465.0,0.0
P01,2024-09-27,6,470.0,0.0
P01,2024-09-27,6,475.0,0.0
P01,2024-09-27,6,480.0,0.0
P01,2024-09-27,6,485.0,0.0
P01,2024-09-27,6,490.0,0.0
P01,2024-09-27,6,495.0,0.0
P01,2024-09-27,6,500.0,0.0
P01,2024-09-27,6,505.0,0.0
P01,2024-09-27,6,510.0,0.0
P01,2024-09-27,6,515.0,0.0
P01,2024-09-27,6,520.0,0.0
P01,2024-09-27,6,525.0,0.0
P01,2024-09-27,6,530.0,0.0
P01,2024-09-27,6,535.0,0.0
P01,2024-09-27,6,540.0,0.0
P01,2024-09-27,6,545.0,0.0
P01,2024-09-27,6,550.0,0.0
P01,2024-09-27,6,555.0,0.0
P01,2024-09-27,6,560.0,0.0
P01,2024-09-27,6,565.0,0.0
P01,2024-09-27,6,570.0,0.0
P01,2024-09-27,6,575.0,0.0
P01,2024-09-27,6,580.0,0.0
P01,2024-09-27,6,585.0,0.0
P01,2024-09-27,6,590.0,0.0
P01,2024-09-27,6,595.0,0.0
P01,2024-09-27,6,600.0,0.0
P01,2024-09-27,6,605.0,0.0
P01,2024-09-27,6,610.0,0.0
P01,2024-09-27,6,615.0,0.0
P01,2024-09-27,6,620.0,0.0
P01,2024-09-27,6,625.0,0.0
P01,2024-09-27,6,630.0,0.0
P01,2024-09-27,6,635.0,0.0
P01,2024-09-27,6,640.0,0.0
P01,2024-09-27,6,645.0,0.0
P01,2024-09-27,6,650.0,0.0
P01,2024-09-27,6,655.0,0.0
P01,2024-09-27,6,660.0,0.0
P01,2024-09-27,6,665.0,0.0
P01,2024-09-27,6,670.0,0.0
P01,2024-09-27,6,675.0,0.0
P01,2024-09-27,6,680.0,0.0
P01,2024-09-27,6,685.0,0.0
P01,2024-09-27,6,690.0,0.0
P01,2024-09-27,6,695.0,0.0
P01,2024-09-27,6,700.0,0.0
P01,2024-09-27,6,705.0,0.0
P01,2024-09-27,6,710.0,0.0
P01,2024-09-27,6,715.0,0.0
P01,2024-09-27,6,720.0,0.0
P01,2024-09-27,6,725.0,0.0
P01,2024-09-27,6,730.0,0.0
P01,2024-09-27,6,735.0,0.0
P01,2024-09-27,6,740.0,0.0
P01,2024-09-27,6,745.0,0.0
P01,2024-09-27,6,750.0,0.0
P01,2024-09-27,6,755.0,0.0
P01,2024-09-27,6,760.0,0.0
P01,2024-09-27,6,765.0,0.0
P01,2024-09-27,6,770.0,0.0
P01,2024-09-27,6,775.0,0.0
P01,2024-09-27,6,780.0,0.0
P01,2024-09-27,6,785.0,0.0
P01,2024-09-27,6,790.0,0.0
P01,2024-09-27,6,795.0,0.0
P01,2024-09-27,6,800.0,0.0
P01,2024-09-27,6,805.0,0.0
P01,2024-09-27,6,810.0,0.0
P01,2024-09-27,6,815.0,0.0
P01,2024-09-27,6,820.0,0.0
P01,2024-09-27,6,825.0,0.0
P01,2024-09-27,6,830.0,0.0
P01,2024-09-27,6,835.0,0.0
P01,2024-09-27,6,840.0,0.0
P01,2024-09-27,6,845.0,0.0
P01,2024-09-27,6,850.0,0.0
P01,2024-09-27,6,855.0,0.0
P01,2024-09-27,6,860.0,0.0
P01,2024-09-27,6,865.0,0.0
P01,2024-09-27,6,870.0,0.0
P01,2024-09-27,6,875.0,0.0
P01,2024-09-27,6,880.0,0.0
P01,2024-09-27,6,885.0,0.0
P01,2024-09-27,6,890.0,0.0
P01,2024-09-27,6,895.0,0.0
P01,2024-09-27,6,900.0,0.0
P01,2024-09-27,6,905.0,0.0
P01,2024-09-27,6,910.0,0.0
P01,2024-09-27,6,915.0,0.0
P01,2024-09-27,6,920.0,0.0
P01,2024-09-27,6,925.0,0.0
P01,2024-09-27,6,930.0,0.0
P01,2024-09-27,6,935.0,0.0
P01,2024-09-27,6,940.0,0.0
P01,2024-09-27,6,945.0,0.0
P01,2024-09-27,6,950.0,0.0
P01,2024-09-27,6,955.0,0.0
P01,2024-09-27,6,960.0,0.0
P01,2024-09-27,6,965.0,0.0
P01,2024-09-27,6,970.0,0.0
P01,2024-09-27,6,975.0,0.0
P01,2024-09-27,6,980.0,0.0
P01,2024-09-27,6,985.0,0.0
P01,2024-09-27,6,990.0,0.0
P01,2024-09-27,6,995.0,0.0
P01,2024-09-27,6,1000.0,0.0
P01,2024-09-27,6,1005.0,0.0
P01,2024-09-27,6,1010.0,0.0
P01,2024-09-27,6,1015.0,0.0
P01,2024-09-27,6,1020.0,0.0
P01,2024-09-27,6,1025.0,0.0
P01,2024-09-27,6,1030.0,0.0
P01,2024-09-27,6,1035.0,0.0
P01,2024-09-27,6,1040.0,0.0
P01,2024-09-27,6,1045.0,0.0
P01,2024-09-27,6,1050.0,0.0
P01,2024-09-27,6,1055.0,0.0
P01,2024-09-27,6,1060.0,0.0
P01,2024-09-27,6,1065.0,0.0
P01,2024-09-27,6,1070.0,0.0
P01,2024-09-27,6,1075.0,0.0
P01,2024-09-27,6,1080.0,0.0
P01,2024-09-27,6,1085.0,0.0
P01,2024-09-27,6,1090.0,0.0
P01,2024-09-27,6,1095.0,0.0
P01,2024-09-27,6,1100.0,0.0
P01,2024-09-27,6,1105.0,0.0
P01,2024-09-27,6,1110.0,0.0
P01,2024-09-27,6,1115.0,0.0
P01,2024-09-27,6,1120.0,0.0
P01,2024-09-27,6,1125.0,0.0
P01,2024-09-27,6,1130.0,0.0
P01,2024-09-27,6,1135.0,0.0
P01,2024-09-27,6,1140.0,0.0
P01,2024-09-27,6,1145.0,0.0
P01,2024-09-27,6,1150.0,0.0
P01,2024-09-27,6,1155.0,0.0
P01,2024-09-27,6,1160.0,0.0
P01,2024-09-27,6,1165.0,0.0
P01,2024-09-27,6,1170.0,0.0
P01,2024-09-27,6,1175.0,0.0
P01,2024-09-27,6,1180.0,0.0
P01,2024-09-27,6,1185.0,0.0
P01,2024-09-27,6,1190.0,0.0
P01,2024-09-27,6,1195.0,0.0
P01,2024-09-27,6,1200.0,0.0
P01,2024-09-27,6,1205.0,0.0
P01,2024-09-27,6,1210.0,0.0
P01,2024-09-27,6,1215.0,0.0
P01,2024-09-27,6,1220.0,0.0
P01,2024-09-27,6,1225.0,0.0
P01,2024-09-27,6,1230.0,0.0
P01,2024-09-27,7,0.0,0.0
P01,2024-09-27,7,5.0,0.0
P01,2024-09-27,7,10.0,0.0
P01,2024-09-27,7,15.0,0.0
P01,2024-09-27,7,20.0,0.0
P01,2024-09-27,7,25.0,0.0
P01,2024-09-27,7,30.0,0.0
P01,2024-09-27,7,35.0,0.0
P01,2024-09-27,7,40.0,0.0
P01,2024-09-27,7,45.0,0.0
P01,2024-09-27,7,50.0,0.0
P01,2024-09-27,7,55.0,0.0
P01,2024-09-27,7,60.0,0.0
P01,2024-09-27,7,65.0,0.0
P01,2024-09-27,7,70.0,0.0
P01,2024-09-27,7,75.0,0.0
P01,2024-09-27,7,80.0,0.0
P01,2024-09-27,7,85.0,0.0
P01,2024-09-27,7,90.0,0.0
P01,2024-09-27,7,95.0,0.0
P01,2024-09-27,7,100.0,0.0
P01,2024-09-27,7,105.0,0.0
P01,2024-09-27,7,110.0,0.0
P01,2024-09-27,7,115.0,0.0
P01,2024-09-27,7,120.0,0.0
P01,2024-09-27,7,125.0,0.0
P01,2024-09-27,7,130.0,0.0
P01,2024-09-27,7,135.0,0.0
P01,2024-09-27,7,140.0,0.0
P01,2024-09-27,7,145.0,0.0
P01,2024-09-27,7,150.0,0.0
P01,2024-09-27,7,155.0,0.0
P01,2024-09-27,7,160.0,0.0
P01,2024-09-27,7,165.0,0.0
P01,2024-09-27,7,170.0,0.0
P01,2024-09-27,7,175.0,0.0
P01,2024-09-27,7,180.0,0.0
P01,2024-09-27,7,185.0,0.0
P01,2024-09-27,7,190.0,0.0
P01,2024-09-27,7,195.0,0.0
P01,2024-09-27,7,200.0,0.0
P01,2024-09-27,7,205.0,0.0
P01,2024-09-27,7,210.0,0.0
P01,2024-09-27,7,215.0,0.0
P01,2024-09-27,7,220.0,0.0
P01,2024-09-27,7,225.0,0.0
P01,2024-09-27,7,230.0,0.0
P01,2024-09-27,7,235.0,0.0
P01,2024-09-27,7,240.0,0.0
P01,2024-09-27,7,245.0,0.0
P01,2024-09-27,7,250.0,0.0
P01,2024-09-27,7,255.0,0.0
P01,2024-09-27,7,260.0,0.0
P01,2024-09-27,7,265.0,0.0
P01,2024-09-27,7,270.0,0.0
P01,2024-09-27,7,275.0,0.0
P01,2024-09-27,7,280.0,0.0
P01,2024-09-27,7,285.0,0.0
P01,2024-09-27,7,290.0,0.0
P01,2024-09-27,7,295.0,0.0
P01,2024-09-27,7,300.0,0.0
P01,2024-09-27,7,305.0,0.0
P01,2024-09-27,7,310.0,0.0
P01,2024-09-27,7,315.0,0.0
P01,2024-09-27,7,320.0,0.0
P01,2024-09-27,7,325.0,0.0
P01,2024-09-27,7,330.0,0.0
P01,2024-09-27,7,335.0,0.0
P01,2024-09-27,7,340.0,0.0
P01,2024-09-27,7,345.0,0.0
P01,2024-09-27,7,350.0,0.0
P01,2024-09-27,7,355.0,0.0
P01,2024-09-27,7,360.0,0.0
P01,2024-09-27,7,365.0,0.0
P01,2024-09-27,7,370.0,0.0
P01,2024-09-27,7,375.0,0.0
P01,2024-09-27,7,380.0,0.0
P01,2024-09-27,7,385.0,0.0
P01,2024-09-27,7,390.0,0.0
P01,2024-09-27,7,395.0,0.0
P01,2024-09-27,7,400.0,0.0
P01,2024-09-27,7,405.0,0.0
P01,2024-09-27,7,410.0,0.0
P01,2024-09-27,7,415.0,0.0
P01,2024-09-27,7,420.0,0.0
P01,2024-09-27,7,425.0,0.0
P01,2024-09-27,7,430.0,0.0
P01,2024-09-27,7,435.0,0.0
P01,2024-09-27,7,440.0,0.0
P01,2024-09-27,7,445.0,0.0
P01,2024-09-27,7,450.0,0.0
P01,2024-09-27,7,455.0,0.0
P01,2024-09-27,7,460.0,0.0
P01,2024-09-27,7,465.0,0.0
P01,2024-09-27,7,470.0,0.0
P01,2024-09-27,7,475.0,0.0
P01,2024-09-27,7,480.0,0.0
P01,2024-09-27,7,485.0,0.0
P01,2024-09-27,7,490.0,0.0
P01,2024-09-27,7,495.0,0.0
P01,2024-09-27,7,500.0,0.0
P01,2024-09-27,7,505.0,0.0
P01,2024-09-27,7,510.0,0.0
P01,2024-09-27,7,515.0,0.0
P01,2024-09-27,7,520.0,0.0
P01,2024-09-27,7,525.0,0.0
P01,2024-09-27,7,530.0,0.0
P01,2024-09-27,7,535.0,0.0
P01,2024-09-27,7,540.0,0.0
P01,2024-09-27,7,545.0,0.0
P01,2024-09-27,7,550.0,0.0
P01,2024-09-27,7,555.0,0.0
P01,2024-09-27,7,560.0,0.0
P01,2024-09-27,7,565.0,0.0
P01,2024-09-27,7,570.0,0.0
P01,2024-09-27,7,575.0,0.0
P01,2024-09-27,7,580.0,0.0
P01,2024-09-27,7,585.0,0.0
P01,2024-09-27,7,590.0,0.0
P01,2024-09-27,7,595.0,0.0
P01,2024-09-27,7,600.0,0.0
P01,2024-09-27,7,605.0,0.0
P01,2024-09-27,7,610.0,0.0
P01,2024-09-27,7,615.0,0.0
P01,2024-09-27,7,620.0,0.0
P01,2024-09-27,7,625.0,0.0
P01,2024-09-27,7,630.0,0.0
P01,2024-09-27,7,635.0,0.0
P01,2024-09-27,7,640.0,0.0
P01,2024-09-27,7,645.0,0.0
P01,2024-09-27,7,650.0,0.0
P01,2024-09-27,7,655.0,0.0
P01,2024-09-27,7,660.0,0.0
P01,2024-09-27,7,665.0,0.0
P01,2024-09-27,7,670.0,0.0
P01,2024-09-27,7,675.0,0.0
P01,2024-09-27,7,680.0,0.0
P01,2024-09-27,7,685.0,0.0
P01,2024-09-27,7,690.0,0.0
P01,2024-09-27,7,695.0,0.0
P01,2024-09-27,7,700.0,0.0
P01,2024-09-27,7,705.0,0.0
P01,2024-09-27,7,710.0,0.0
P01,2024-09-27,7,715.0,0.0
P01,2024-09-27,7,720.0,0.0
P01,2024-09-27,7,725.0,0.0
P01,2024-09-27,7,730.0,0.0
P01,2024-09-27,7,735.0,0.0
P01,2024-09-27,7,740.0,0.0
P01,2024-09-27,7,745.0,0.0
P01,2024-09-27,7,750.0,0.0
P01,2024-09-27,7,755.0,0.0
P01,2024-09-27,7,760.0,0.0
P01,2024-09-27,7,765.0,0.0
P01,2024-09-27,7,770.0,0.0
P01,2024-09-27,7,775.0,0.0
P01,2024-09-27,7,780.0,0.0
P01,2024-09-27,7,785.0,0.0
P01,2024-09-27,7,790.0,0.0
P01,2024-09-27,7,795.0,0.0
P01,2024-09-27,7,800.0,0.0
P01,2024-09-27,7,805.0,0.0
P01,2024-09-27,7,810.0,0.0
P01,2024-09-27,7,815.0,0.0
P01,2024-09-27,7,820.0,0.0
P01,2024-09-27,7,825.0,0.0
P01,2024-09-27,7,830.0,0.0
P01,2024-09-27,7,835.0,0.0
P01,2024-09-27,7,840.0,0.0
P01,2024-09-27,7,845.0,0.0
P01,2024-09-27,7,850.0,0.0
P01,2024-09-27,7,855.0,0.0
P01,2024-09-27,7,860.0,0.0
P01,2024-09-27,7,865.0,0.0
P01,2024-09-27,7,870.0,0.0
P01,2024-09-27,7,875.0,0.0
P01,2024-09-27,7,880.0,0.0
P01,2024-09-27,7,885.0,0.0
P01,2024-09-27,7,890.0,0.0
P01,2024-09-27,7,895.0,0.0
P01,2024-09-27,7,900.0,0.0
P01,2024-09-27,7,905.0,0.0
P01,2024-09-27,7,910.0,0.0
P01,2024-09-27,7,915.0,0.0
P01,2024-09-27,7,920.0,0.0
P01,2024-09-27,7,925.0,0.0
P01,2024-09-27,7,930.0,0.0
P01,2024-09-27,7,935.0,0.0
P01,2024-09-27,7,940.0,0.0
P01,2024-09-27,7,945.0,0.0
P01,2024-09-27,7,950.0,0.0
P01,2024-09-27,7,955.0,0.0
P01,2024-09-27,7,960.0,0.0
P01,2024-09-27,7,965.0,0.0
P01,2024-09-27,7,970.0,0.0
P01,2024-09-27,7,975.0,0.0
P01,2024-09-27,7,980.0,0.0
P01,2024-09-27,7,985.0,0.0
P01,2024-09-27,7,990.0,0.0
P01,2024-09-27,7,995.0,0.0
P01,2024-09-27,7,1000.0,0.0
P01,2024-09-27,7,1005.0,0.0
P01,2024-09-27,7,1010.0,0.0
P01,2024-09-27,7,1015.0,0.0
P01,2024-09-27,7,1020.0,0.0
P01,2024-09-27,7,1025.0,0.0
P01,2024-09-27,7,1030.0,0.0
P01,2024-09-27,7,1035.0,0.0
P01,2024-09-27,7,1040.0,0.0
P01,2024-09-27,7,1045.0,0.0
P01,2024-09-27,7,1050.0,0.0
P01,2024-09-27,7,1055.0,0.0
P01,2024-09-27,7,1060.0,0.0
P01,2024-09-27,7,1065.0,0.0
P01,2024-09-27,7,1070.0,0.0
P01,2024-09-27,7,1075.0,0.0
P01,2024-09-27,7,1080.0,0.0
P01,2024-09-27,7,1085.0,0.0
P01,2024-09-27,7,1090.0,0.0
P01,2024-09-27,7,1095.0,0.0
P01,2024-09-27,7,1100.0,0.0
P01,2024-09-27,7,1105.0,0.0
P01,2024-09-27,7,1110.0,0.0
P01,2024-09-27,7,1115.0,0.0
P01,2024-09-27,7,1120.0,0.0
P01,2024-09-27,7,1125.0,0.0
P01,2024-09-27,7,1130.0,0.0
P01,2024-09-27,7,1135.0,0.0
P01,2024-09-27,7,1140.0,0.0
P01,2024-09-27,7,1145.0,0.0
P01,2024-09-27,7,1150.0,0.0
P01,2024-09-27,7,1155.0,0.0
P01,2024-09-27,7,1160.0,0.0
P01,2024-09-27,7,1165.0,0.0
P01,2024-09-27,7,1170.0,0.0
P01,2024-09-27,7,1175.0,0.0
P01,2024-09-27,7,1180.0,0.0
P01,2024-09-27,7,1185.0,0.0
P01,2024-09-27,7,1190.0,0.0
P01,2024-09-27,7,1195.0,0.0
P01,2024-09-27,7,1200.0,0.0
P01,2024-09-27,7,1205.0,0.0
P01,2024-09-27,7,1210.0,0.0
P01,2024-09-27,7,1215.0,0.0
P01,2024-09-27,7,1220.0,0.0
P01,2024-09-27,7,1225.0,0.0
P01,2024-09-27,7,1230.0,0.0
P01,2024-09-27,8,0.0,1.0
P01,2024-09-27,8,5.0,1.0
P01,2024-09-27,8,10.0,1.0
P01,2024-09-27,8,15.0,1.0
P01,2024-09-27,8,20.0,1.0
P01,2024-09-27,8,25.0,1.0
P01,2024-09-27,8,30.0,1.0
P01,2024-09-27,8,35.0,1.0
P01,2024-09-27,8,40.0,1.0
P01,2024-09-27,8,45.0,1.0
P01,2024-09-27,8,50.0,1.0
P01,2024-09-27,8,55.0,1.0
P01,2024-09-27,8,60.0,1.0
P01,2024-09-27,8,65.0,1.0
P01,2024-09-27,8,70.0,1.0
P01,2024-09-27,8,75.0,1.0
P01,2024-09-27,8,80.0,1.0
P01,2024-09-27,8,85.0,1.0
P01,2024-09-27,8,90.0,1.0
P01,2024-09-27,8,95.0,1.0
P01,2024-09-27,8,100.0,1.0
P01,2024-09-27,8,105.0,1.0
P01,2024-09-27,8,110.0,1.0
P01,2024-09-27,8,115.0,1.0
P01,2024-09-27,8,120.0,1.0
P01,2024-09-27,8,125.0,1.0
P01,2024-09-27,8,130.0,1.0
P01,2024-09-27,8,135.0,1.0
P01,2024-09-27,8,140.0,1.0
P01,2024-09-27,8,145.0,1.0
P01,2024-09-27,8,150.0,1.0
P01,2024-09-27,8,155.0,1.0
P01,2024-09-27,8,160.0,1.0
P01,2024-09-27,8,165.0,1.0
P01,2024-09-27,8,170.0,1.0
P01,2024-09-27,8,175.0,1.0
P01,2024-09-27,8,180.0,1.0
P01,2024-09-27,8,185.0,1.0
P01,2024-09-27,8,190.0,1.0
P01,2024-09-27,8,195.0,1.0
P01,2024-09-27,8,200.0,1.0
P01,2024-09-27,8,205.0,1.0
P01,2024-09-27,8,210.0,1.0
P01,2024-09-27,8,215.0,1.0
P01,2024-09-27,8,220.0,1.0
P01,2024-09-27,8,225.0,1.0
P01,2024-09-27,8,230.0,1.0
P01,2024-09-27,8,235.0,1.0
P01,2024-09-27,8,240.0,1.0
P01,2024-09-27,8,245.0,1.0
P01,2024-09-27,8,250.0,1.0
P01,2024-09-27,8,255.0,1.0
P01,2024-09-27,8,260.0,1.0
P01,2024-09-27,8,265.0,1.0
P01,2024-09-27,8,270.0,1.0
P01,2024-09-27,8,275.0,1.0
P01,2024-09-27,8,280.0,1.0
P01,2024-09-27,8,285.0,1.0
P01,2024-09-27,8,290.0,1.0
P01,2024-09-27,8,295.0,1.0
P01,2024-09-27,8,300.0,1.0
P01,2024-09-27,8,305.0,1.0
P01,2024-09-27,8,310.0,1.0
P01,2024-09-27,8,315.0,1.0
P01,2024-09-27,8,320.0,1.0
P01,2024-09-27,8,325.0,1.0
P01,2024-09-27,8,330.0,1.0
P01,2024-09-27,8,335.0,1.0
P01,2024-09-27,8,340.0,1.0
P01,2024-09-27,8,345.0,1.0
P01,2024-09-27,8,350.0,1.0
P01,2024-09-27,8,355.0,1.0
P01,2024-09-27,8,360.0,1.0
P01,2024-09-27,8,365.0,1.0
P01,2024-09-27,8,370.0,1.0
P01,2024-09-27,8,375.0,1.0
P01,2024-09-27,8,380.0,1.0
P01,2024-09-27,8,385.0,1.0
P01,2024-09-27,8,390.0,1.0
P01,2024-09-27,8,395.0,1.0
P01,2024-09-27,8,400.0,1.0
P01,2024-09-27,8,405.0,0.96
P01,2024-09-27,8,410.0,1.0
P01,2024-09-27,8,415.0,1.0
P01,2024-09-27,8,420.0,0.52
P01,2024-09-27,8,425.0,0.42
P01,2024-09-27,8,430.0,0.78
P01,2024-09-27,8,435.0,1.0
P01,2024-09-27,8,440.0,1.0
P01,2024-09-27,8,445.0,1.0
P01,2024-09-27,8,450.0,1.0
P01,2024-09-27,8,455.0,1.0
P01,2024-09-27,8,460.0,1.0
P01,2024-09-27,8,465.0,1.0
P01,2024-09-27,8,470.0,1.0
P01,2024-09-27,8,475.0,1.0
P01,2024-09-27,8,480.0,1.0
P01,2024-09-27,8,485.0,1.0
P01,2024-09-27,8,490.0,1.0
P01,2024-09-27,8,495.0,1.0
P01,2024-09-27,8,500.0,1.0
P01,2024-09-27,8,505.0,1.0
P01,2024-09-27,8,510.0,1.0
P01,2024-09-27,8,515.0,1.0
P01,2024-09-27,8,520.0,1.0
P01,2024-09-27,8,525.0,1.0
P01,2024-09-27,8,530.0,1.0
P01,2024-09-27,8,535.0,1.0
P01,2024-09-27,8,540.0,1.0
P01,2024-09-27,8,545.0,1.0
P01,2024-09-27,8,550.0,1.0
P01,2024-09-27,8,555.0,1.0
P01,2024-09-27,8,560.0,1.0
P01,2024-09-27,8,565.0,1.0
P01,2024-09-27,8,570.0,1.0
P01,2024-09-27,8,575.0,1.0
P01,2024-09-27,8,580.0,1.0
P01,2024-09-27,8,585.0,1.0
P01,2024-09-27,8,590.0,1.0
P01,2024-09-27,8,595.0,1.0
P01,2024-09-27,8,600.0,1.0
P01,2024-09-27,8,605.0,1.0
P01,2024-09-27,8,610.0,1.0
P01,2024-09-27,8,615.0,1.0
P01,2024-09-27,8,620.0,1.0
P01,2024-09-27,8,625.0,1.0
P01,2024-09-27,8,630.0,1.0
P01,2024-09-27,8,635.0,1.0
P01,2024-09-27,8,640.0,1.0
P01,2024-09-27,8,645.0,1.0
P01,2024-09-27,8,650.0,1.0
P01,2024-09-27,8,655.0,1.0
P01,2024-09-27,8,660.0,1.0
P01,2024-09-27,8,665.0,1.0
P01,2024-09-27,8,670.0,1.0
P01,2024-09-27,8,675.0,1.0
P01,2024-09-27,8,680.0,1.0
P01,2024-09-27,8,685.0,1.0
P01,2024-09-27,8,690.0,1.0
P01,2024-09-27,8,695.0,1.0
P01,2024-09-27,8,700.0,0.88
P01,2024-09-27,8,705.0,1.0
P01,2024-09-27,8,710.0,0.98
P01,2024-09-27,8,715.0,1.0
P01,2024-09-27,8,720.0,1.0
P01,2024-09-27,8,725.0,1.0
P01,2024-09-27,8,730.0,1.0
P01,2024-09-27,8,735.0,1.0
P01,2024-09-27,8,740.0,1.0
P01,2024-09-27,8,745.0,1.0
P01,2024-09-27,8,750.0,1.0
P01,2024-09-27,8,755.0,1.0
P01,2024-09-27,8,760.0,1.0
P01,2024-09-27,8,765.0,1.0
P01,2024-09-27,8,770.0,1.0
P01,2024-09-27,8,775.0,1.0
P01,2024-09-27,8,780.0,1.0
P01,2024-09-27,8,785.0,1.0
P01,2024-09-27,8,790.0,1.0
P01,2024-09-27,8,795.0,1.0
P01,2024-09-27,8,800.0,1.0
P01,2024-09-27,8,805.0,1.0
P01,2024-09-27,8,810.0,0.7
P01,2024-09-27,8,815.0,0.7
P01,2024-09-27,8,820.0,0.98
P01,2024-09-27,8,825.0,0.0
P01,2024-09-27,8,830.0,0.0
P01,2024-09-27,8,835.0,0.0
P01,2024-09-27,8,840.0,0.0
P01,2024-09-27,8,845.0,0.0
P01,2024-09-27,8,850.0,0.0
P01,2024-09-27,8,855.0,0.0
P01,2024-09-27,8,860.0,0.0
P01,2024-09-27,8,865.0,0.0
P01,2024-09-27,8,870.0,0.0
P01,2024-09-27,8,875.0,0.0
P01,2024-09-27,8,880.0,0.0
P01,2024-09-27,8,885.0,0.0
P01,2024-09-27,8,890.0,0.0
P01,2024-09-27,8,895.0,0.0
P01,2024-09-27,8,900.0,0.0
P01,2024-09-27,8,905.0,0.0
P01,2024-09-27,8,910.0,0.0
P01,2024-09-27,8,915.0,0.0
P01,2024-09-27,8,920.0,0.0
P01,2024-09-27,8,925.0,0.0
P01,2024-09-27,8,930.0,0.0
P01,2024-09-27,8,935.0,0.0
P01,2024-09-27,8,940.0,0.0
P01,2024-09-27,8,945.0,0.0
P01,2024-09-27,8,950.0,0.0
P01,2024-09-27,8,955.0,0.0
P01,2024-09-27,8,960.0,0.0
P01,2024-09-27,8,965.0,0.0
P01,2024-09-27,8,970.0,0.0
P01,2024-09-27,8,975.0,0.0
P01,2024-09-27,8,980.0,0.0
P01,2024-09-27,8,985.0,0.0
P01,2024-09-27,8,990.0,0.0
P01,2024-09-27,8,995.0,0.0
P01,2024-09-27,8,1000.0,0.0
P01,2024-09-27,8,1005.0,0.0
P01,2024-09-27,8,1010.0,0.0
P01,2024-09-27,8,1015.0,0.0
P01,2024-09-27,8,1020.0,0.0
P01,2024-09-27,8,1025.0,0.0
P01,2024-09-27,8,1030.0,0.0
P01,2024-09-27,8,1035.0,0.0
P01,2024-09-27,8,1040.0,0.0
P01,2024-09-27,8,1045.0,0.0
P01,2024-09-27,8,1050.0,0.0
P01,2024-09-27,8,1055.0,0.0
P01,2024-09-27,8,1060.0,0.0
P01,2024-09-27,8,1065.0,0.0
P01,2024-09-27,8,1070.0,0.0
P01,2024-09-27,8,1075.0,0.0
P01,2024-09-27,8,1080.0,0.0
P01,2024-09-27,8,1085.0,0.0
P01,2024-09-27,8,1090.0,0.0
P01,2024-09-27,8,1095.0,0.0
P01,2024-09-27,8,1100.0,0.0
P01,2024-09-27,8,1105.0,0.0
P01,2024-09-27,8,1110.0,0.0
P01,2024-09-27,8,1115.0,0.0
P01,2024-09-27,8,1120.0,0.0
P01,2024-09-27,8,1125.0,0.0
P01,2024-09-27,8,1130.0,0.0
P01,2024-09-27,8,1135.0,0.0
P01,2024-09-27,8,1140.0,0.0
P01,2024-09-27,8,1145.0,0.0
P01,2024-09-27,8,1150.0,0.0
P01,2024-09-27,8,1155.0,0.0
P01,2024-09-27,8,1160.0,0.0
P01,2024-09-27,8,1165.0,0.0
P01,2024-09-27,8,1170.0,0.0
P01,2024-09-27,8,1175.0,0.0
P01,2024-09-27,8,1180.0,0.0
P01,2024-09-27,8,1185.0,0.0
P01,2024-09-27,8,1190.0,0.0
P01,2024-09-27,8,1195.0,0.0
P01,2024-09-27,8,1200.0,0.0
P01,2024-09-27,8,1205.0,0.0
P01,2024-09-27,8,1210.0,0.0
P01,2024-09-27,8,1215.0,0.0
P01,2024-09-27,8,1220.0,0.0
P01,2024-09-27,8,1225.0,0.0
P01,2024-09-27,8,1230.0,0.0
P01,2024-09-27,9,0.0,1.0
P01,2024-09-27,9,5.0,1.0
P01,2024-09-27,9,10.0,1.0
P01,2024-09-27,9,15.0,1.0
P01,2024-09-27,9,20.0,1.0
P01,2024-09-27,9,25.0,1.0
P01,2024-09-27,9,30.0,1.0
P01,2024-09-27,9,35.0,1.0
P01,2024-09-27,9,40.0,1.0
P01,2024-09-27,9,45.0,1.0
P01,2024-09-27,9,50.0,1.0
P01,2024-09-27,9,55.0,1.0
P01,2024-09-27,9,60.0,1.0
P01,2024-09-27,9,65.0,1.0
P01,2024-09-27,9,70.0,1.0
P01,2024-09-27,9,75.0,1.0
P01,2024-09-27,9,80.0,1.0
P01,2024-09-27,9,85.0,1.0
P01,2024-09-27,9,90.0,1.0
P01,2024-09-27,9,95.0,1.0
P01,2024-09-27,9,100.0,1.0
P01,2024-09-27,9,105.0,1.0
P01,2024-09-27,9,110.0,1.0
P01,2024-09-27,9,115.0,1.0
P01,2024-09-27,9,120.0,1.0
P01,2024-09-27,9,125.0,1.0
P01,2024-09-27,9,130.0,1.0
P01,2024-09-27,9,135.0,1.0
P01,2024-09-27,9,140.0,1.0
P01,2024-09-27,9,145.0,1.0
P01,2024-09-27,9,150.0,1.0
P01,2024-09-27,9,155.0,1.0
P01,2024-09-27,9,160.0,1.0
P01,2024-09-27,9,165.0,1.0
P01,2024-09-27,9,170.0,1.0
P01,2024-09-27,9,175.0,1.0
P01,2024-09-27,9,180.0,1.0
P01,2024-09-27,9,185.0,1.0
P01,2024-09-27,9,190.0,1.0
P01,2024-09-27,9,195.0,1.0
P01,2024-09-27,9,200.0,1.0
P01,2024-09-27,9,205.0,1.0
P01,2024-09-27,9,210.0,1.0
P01,2024-09-27,9,215.0,1.0
P01,2024-09-27,9,220.0,1.0
P01,2024-09-27,9,225.0,1.0
P01,2024-09-27,9,230.0,1.0
P01,2024-09-27,9,235.0,1.0
P01,2024-09-27,9,240.0,1.0
P01,2024-09-27,9,245.0,1.0
P01,2024-09-27,9,250.0,1.0
P01,2024-09-27,9,255.0,1.0
P01,2024-09-27,9,260.0,1.0
P01,2024-09-27,9,265.0,1.0
P01,2024-09-27,9,270.0,1.0
P01,2024-09-27,9,275.0,1.0
P01,2024-09-27,9,280.0,1.0
P01,2024-09-27,9,285.0,1.0
P01,2024-09-27,9,290.0,1.0
P01,2024-09-27,9,295.0,1.0
P01,2024-09-27,9,300.0,1.0
P01,2024-09-27,9,305.0,1.0
P01,2024-09-27,9,310.0,1.0
P01,2024-09-27,9,315.0,1.0
P01,2024-09-27,9,320.0,1.0
P01,2024-09-27,9,325.0,1.0
P01,2024-09-27,9,330.0,1.0
P01,2024-09-27,9,335.0,1.0
P01,2024-09-27,9,340.0,1.0
P01,2024-09-27,9,345.0,1.0
P01,2024-09-27,9,350.0,1.0
P01,2024-09-27,9,355.0,1.0
P01,2024-09-27,9,360.0,1.0
P01,2024-09-27,9,365.0,1.0
P01,2024-09-27,9,370.0,1.0
P01,2024-09-27,9,375.0,1.0
P01,2024-09-27,9,380.0,1.0
P01,2024-09-27,9,385.0,1.0
P01,2024-09-27,9,390.0,1.0
P01,2024-09-27,9,395.0,1.0
P01,2024-09-27,9,400.0,1.0
P01,2024-09-27,9,405.0,1.0
P01,2024-09-27,9,410.0,1.0
P01,2024-09-27,9,415.0,1.0
P01,2024-09-27,9,420.0,1.0
P01,2024-09-27,9,425.0,1.0
P01,2024-09-27,9,430.0,1.0
P01,2024-09-27,9,435.0,1.0
P01,2024-09-27,9,440.0,1.0
P01,2024-09-27,9,445.0,1.0
P01,2024-09-27,9,450.0,1.0
P01,2024-09-27,9,455.0,1.0
P01,2024-09-27,9,460.0,1.0
P01,2024-09-27,9,465.0,1.0
P01,2024-09-27,9,470.0,1.0
P01,2024-09-27,9,475.0,1.0
P01,2024-09-27,9,480.0,1.0
P01,2024-09-27,9,485.0,1.0
P01,2024-09-27,9,490.0,1.0
P01,2024-09-27,9,495.0,1.0
P01,2024-09-27,9,500.0,1.0
P01,2024-09-27,9,505.0,1.0
P01,2024-09-27,9,510.0,1.0
P01,2024-09-27,9,515.0,1.0
P01,2024-09-27,9,520.0,1.0
P01,2024-09-27,9,525.0,1.0
P01,2024-09-27,9,530.0,1.0
P01,2024-09-27,9,535.0,1.0
P01,2024-09-27,9,540.0,1.0
P01,2024-09-27,9,545.0,1.0
P01,2024-09-27,9,550.0,1.0
P01,2024-09-27,9,555.0,1.0
P01,2024-09-27,9,560.0,1.0
P01,2024-09-27,9,565.0,1.0
P01,2024-09-27,9,570.0,1.0
P01,2024-09-27,9,575.0,1.0
P01,2024-09-27,9,580.0,1.0
P01,2024-09-27,9,585.0,1.0
P01,2024-09-27,9,590.0,1.0
P01,2024-09-27,9,595.0,1.0
P01,2024-09-27,9,600.0,1.0
P01,2024-09-27,9,605.0,1.0
P01,2024-09-27,9,610.0,1.0
P01,2024-09-27,9,615.0,1.0
P01,2024-09-27,9,620.0,1.0
P01,2024-09-27,9,625.0,1.0
P01,2024-09-27,9,630.0,1.0
P01,2024-09-27,9,635.0,1.0
P01,2024-09-27,9,640.0,1.0
P01,2024-09-27,9,645.0,1.0
P01,2024-09-27,9,650.0,1.0
P01,2024-09-27,9,655.0,1.0
P01,2024-09-27,9,660.0,1.0
P01,2024-09-27,9,665.0,1.0
P01,2024-09-27,9,670.0,1.0
P01,2024-09-27,9,675.0,1.0
P01,2024-09-27,9,680.0,1.0
P01,2024-09-27,9,685.0,1.0
P01,2024-09-27,9,690.0,1.0
P01,2024-09-27,9,695.0,1.0
P01,2024-09-27,9,700.0,1.0
P01,2024-09-27,9,705.0,1.0
P01,2024-09-27,9,710.0,1.0
P01,2024-09-27,9,715.0,1.0
P01,2024-09-27,9,720.0,1.0
P01,2024-09-27,9,725.0,1.0
P01,2024-09-27,9,730.0,1.0
P01,2024-09-27,9,735.0,1.0
P01,2024-09-27,9,740.0,1.0
P01,2024-09-27,9,745.0,1.0
P01,2024-09-27,9,750.0,1.0
P01,2024-09-27,9,755.0,1.0
P01,2024-09-27,9,760.0,1.0
P01,2024-09-27,9,765.0,1.0
P01,2024-09-27,9,770.0,1.0
P01,2024-09-27,9,775.0,1.0
P01,2024-09-27,9,780.0,1.0
P01,2024-09-27,9,785.0,1.0
P01,2024-09-27,9,790.0,1.0
P01,2024-09-27,9,795.0,1.0
P01,2024-09-27,9,800.0,1.0
P01,2024-09-27,9,805.0,1.0
P01,2024-09-27,9,810.0,1.0
P01,2024-09-27,9,815.0,1.0
P01,2024-09-27,9,820.0,1.0
P01,2024-09-27,9,825.0,1.0
P01,2024-09-27,9,830.0,1.0
P01,2024-09-27,9,835.0,1.0
P01,2024-09-27,9,840.0,1.0
P01,2024-09-27,9,845.0,1.0
P01,2024-09-27,9,850.0,1.0
P01,2024-09-27,9,855.0,1.0
P01,2024-09-27,9,860.0,1.0
P01,2024-09-27,9,865.0,1.0
P01,2024-09-27,9,870.0,1.0
P01,2024-09-27,9,875.0,1.0
P01,2024-09-27,9,880.0,1.0
P01,2024-09-27,9,885.0,1.0
P01,2024-09-27,9,890.0,1.0
P01,2024-09-27,9,895.0,1.0
P01,2024-09-27,9,900.0,1.0
P01,2024-09-27,9,905.0,1.0
P01,2024-09-27,9,910.0,1.0
P01,2024-09-27,9,915.0,1.0
P01,2024-09-27,9,920.0,1.0
P01,2024-09-27,9,925.0,1.0
P01,2024-09-27,9,930.0,1.0
P01,2024-09-27,9,935.0,1.0
P01,2024-09-27,9,940.0,1.0
P01,2024-09-27,9,945.0,1.0
P01,2024-09-27,9,950.0,1.0
P01,2024-09-27,9,955.0,1.0
P01,2024-09-27,9,960.0,1.0
P01,2024-09-27,9,965.0,1.0
P01,2024-09-27,9,970.0,1.0
P01,2024-09-27,9,975.0,1.0
P01,2024-09-27,9,980.0,1.0
P01,2024-09-27,9,985.0,1.0
P01,2024-09-27,9,990.0,1.0
P01,2024-09-27,9,995.0,1.0
P01,2024-09-27,9,1000.0,1.0
P01,2024-09-27,9,1005.0,1.0
P01,2024-09-27,9,1010.0,1.0
P01,2024-09-27,9,1015.0,1.0
P01,2024-09-27,9,1020.0,1.0
P01,2024-09-27,9,1025.0,1.0
P01,2024-09-27,9,1030.0,1.0
P01,2024-09-27,9,1035.0,1.0
P01,2024-09-27,9,1040.0,1.0
P01,2024-09-27,9,1045.0,1.0
P01,2024-09-27,9,1050.0,1.0
P01,2024-09-27,9,1055.0,1.0
P01,2024-09-27,9,1060.0,1.0
P01,2024-09-27,9,1065.0,1.0
P01,2024-09-27,9,1070.0,1.0
P01,2024-09-27,9,1075.0,1.0
P01,2024-09-27,9,1080.0,1.0
P01,2024-09-27,9,1085.0,1.0
P01,2024-09-27,9,1090.0,1.0
P01,2024-09-27,9,1095.0,1.0
P01,2024-09-27,9,1100.0,1.0
P01,2024-09-27,9,1105.0,1.0
P01,2024-09-27,9,1110.0,1.0
P01,2024-09-27,9,1115.0,1.0
P01,2024-09-27,9,1120.0,1.0
P01,2024-09-27,9,1125.0,1.0
P01,2024-09-27,9,1130.0,1.0
P01,2024-09-27,9,1135.0,1.0
P01,2024-09-27,9,1140.0,1.0
P01,2024-09-27,9,1145.0,1.0
P01,2024-09-27,9,1150.0,1.0
P01,2024-09-27,9,1155.0,1.0
P01,2024-09-27,9,1160.0,1.0
P01,2024-09-27,9,1165.0,1.0
P01,2024-09-27,9,1170.0,1.0
P01,2024-09-27,9,1175.0,1.0
P01,2024-09-27,9,1180.0,1.0
P01,2024-09-27,9,1185.0,1.0
P01,2024-09-27,9,1190.0,1.0
P01,2024-09-27,9,1195.0,1.0
P01,2024-09-27,9,1200.0,1.0
P01,2024-09-27,9,1205.0,1.0
P01,2024-09-27,9,1210.0,1.0
P01,2024-09-27,9,1215.0,1.0
P01,2024-09-27,9,1220.0,1.0
P01,2024-09-27,9,1225.0,1.0
P01,2024-09-27,9,1230.0,1.0
P01,2024-09-27,10,0.0,0.0
P01,2024-09-27,10,5.0,0.0
P01,2024-09-27,10,10.0,0.0
P01,2024-09-27,10,15.0,0.0
P01,2024-09-27,10,20.0,0.0
P01,2024-09-27,10,25.0,0.0
P01,2024-09-27,10,30.0,0.0
P01,2024-09-27,10,35.0,0.0
P01,2024-09-27,10,40.0,0.0
P01,2024-09-27,10,45.0,0.0
P01,2024-09-27,10,50.0,0.0
P01,2024-09-27,10,55.0,0.0
P01,2024-09-27,10,60.0,0.0
P01,2024-09-27,10,65.0,0.0
P01,2024-09-27,10,70.0,0.0
P01,2024-09-27,10,75.0,0.0
P01,2024-09-27,10,80.0,0.0
P01,2024-09-27,10,85.0,0.0
P01,2024-09-27,10,90.0,0.0
P01,2024-09-27,10,95.0,0.0
P01,2024-09-27,10,100.0,0.0
P01,2024-09-27,10,105.0,0.0
P01,2024-09-27,10,110.0,0.0
P01,2024-09-27,10,115.0,0.0
P01,2024-09-27,10,120.0,0.0
P01,2024-09-27,10,125.0,0.0
P01,2024-09-27,10,130.0,0.0
P01,2024-09-27,10,135.0,0.0
P01,2024-09-27,10,140.0,0.0
P01,2024-09-27,10,145.0,0.0
P01,2024-09-27,10,150.0,0.0
P01,2024-09-27,10,155.0,0.0
P01,2024-09-27,10,160.0,0.0
P01,2024-09-27,10,165.0,0.0
P01,2024-09-27,10,170.0,0.0
P01,2024-09-27,10,175.0,0.0
P01,2024-09-27,10,180.0,0.0
P01,2024-09-27,10,185.0,0.0
P01,2024-09-27,10,190.0,0.0
P01,2024-09-27,10,195.0,0.0
P01,2024-09-27,10,200.0,0.0
P01,2024-09-27,10,205.0,0.0
P01,2024-09-27,10,210.0,0.0
P01,2024-09-27,10,215.0,0.0
P01,2024-09-27,10,220.0,0.0
P01,2024-09-27,10,225.0,0.0
P01,2024-09-27,10,230.0,0.0
P01,2024-09-27,10,235.0,0.0
P01,2024-09-27,10,240.0,0.0
P01,2024-09-27,10,245.0,0.0
P01,2024-09-27,10,250.0,0.0
P01,2024-09-27,10,255.0,0.0
P01,2024-09-27,10,260.0,0.0
P01,2024-09-27,10,265.0,0.0
P01,2024-09-27,10,270.0,0.0
P01,2024-09-27,10,275.0,0.0
P01,2024-09-27,10,280.0,0.0
P01,2024-09-27,10,285.0,0.0
P01,2024-09-27,10,290.0,0.0
P01,2024-09-27,10,295.0,0.0
P01,2024-09-27,10,300.0,0.0
P01,2024-09-27,10,305.0,0.0
P01,2024-09-27,10,310.0,0.0
P01,2024-09-27,10,315.0,0.0
P01,2024-09-27,10,320.0,0.0
P01,2024-09-27,10,325.0,0.0
P01,2024-09-27,10,330.0,0.0
P01,2024-09-27,10,335.0,0.0
P01,2024-09-27,10,340.0,0.0
P01,2024-09-27,10,345.0,0.0
P01,2024-09-27,10,350.0,0.0
P01,2024-09-27,10,355.0,0.0
P01,2024-09-27,10,360.0,0.0
P01,2024-09-27,10,365.0,0.0
P01,2024-09-27,10,370.0,0.0
P01,2024-09-27,10,375.0,0.0
P01,2024-09-27,10,380.0,0.0
P01,2024-09-27,10,385.0,0.0
P01,2024-09-27,10,390.0,0.0
P01,2024-09-27,10,395.0,0.0
P01,2024-09-27,10,400.0,0.0
P01,2024-09-27,10,405.0,0.0
P01,2024-09-27,10,410.0,0.0
P01,2024-09-27,10,415.0,0.0
P01,2024-09-27,10,420.0,0.0
P01,2024-09-27,10,425.0,0.0
P01,2024-09-27,10,430.0,0.0
P01,2024-09-27,10,435.0,0.0
P01,2024-09-27,10,440.0,0.0
P01,2024-09-27,10,445.0,0.0
P01,2024-09-27,10,450.0,0.0
P01,2024-09-27,10,455.0,0.0
P01,2024-09-27,10,460.0,0.0
P01,2024-09-27,10,465.0,0.0
P01,2024-09-27,10,470.0,0.0
P01,2024-09-27,10,475.0,0.0
P01,2024-09-27,10,480.0,0.0
P01,2024-09-27,10,485.0,0.0
P01,2024-09-27,10,490.0,0.0
P01,2024-09-27,10,495.0,0.0
P01,2024-09-27,10,500.0,0.0
P01,2024-09-27,10,505.0,0.0
P01,2024-09-27,10,510.0,0.0
P01,2024-09-27,10,515.0,0.0
P01,2024-09-27,10,520.0,0.0
P01,2024-09-27,10,525.0,0.0
P01,2024-09-27,10,530.0,0.0
P01,2024-09-27,10,535.0,0.0
P01,2024-09-27,10,540.0,0.0
P01,2024-09-27,10,545.0,0.0
P01,2024-09-27,10,550.0,0.0
P01,2024-09-27,10,555.0,0.0
P01,2024-09-27,10,560.0,0.0
P01,2024-09-27,10,565.0,0.0
P01,2024-09-27,10,570.0,0.0
P01,2024-09-27,10,575.0,0.0
P01,2024-09-27,10,580.0,0.0
P01,2024-09-27,10,585.0,0.0
P01,2024-09-27,10,590.0,0.0
P01,2024-09-27,10,595.0,0.0
P01,2024-09-27,10,600.0,0.0
P01,2024-09-27,10,605.0,0.0
P01,2024-09-27,10,610.0,0.0
P01,2024-09-27,10,615.0,0.0
P01,2024-09-27,10,620.0,0.0
P01,2024-09-27,10,625.0,0.0
P01,2024-09-27,10,630.0,0.0
P01,2024-09-27,10,635.0,0.0
P01,2024-09-27,10,640.0,0.0
P01,2024-09-27,10,645.0,0.0
P01,2024-09-27,10,650.0,0.0
P01,2024-09-27,10,655.0,0.0
P01,2024-09-27,10,660.0,0.0
P01,2024-09-27,10,665.0,0.0
P01,2024-09-27,10,670.0,0.0
P01,2024-09-27,10,675.0,0.0
P01,2024-09-27,10,680.0,0.0
P01,2024-09-27,10,685.0,0.0
P01,2024-09-27,10,690.0,0.0
P01,2024-09-27,10,695.0,0.0
P01,2024-09-27,10,700.0,0.0
P01,2024-09-27,10,705.0,0.0
P01,2024-09-27,10,710.0,0.0
P01,2024-09-27,10,715.0,0.0
P01,2024-09-27,10,720.0,0.0
P01,2024-09-27,10,725.0,0.0
P01,2024-09-27,10,730.0,0.0
P01,2024-09-27,10,735.0,0.0
P01,2024-09-27,10,740.0,0.0
P01,2024-09-27,10,745.0,0.0
P01,2024-09-27,10,750.0,0.0
P01,2024-09-27,10,755.0,0.0
P01,2024-09-27,10,760.0,0.0
P01,2024-09-27,10,765.0,0.0
P01,2024-09-27,10,770.0,0.0
P01,2024-09-27,10,775.0,0.0
P01,2024-09-27,10,780.0,0.0
P01,2024-09-27,10,785.0,0.0
P01,2024-09-27,10,790.0,0.0
P01,2024-09-27,10,795.0,0.0
P01,2024-09-27,10,800.0,0.0
P01,2024-09-27,10,805.0,0.0
P01,2024-09-27,10,810.0,0.0
P01,2024-09-27,10,815.0,0.0
P01,2024-09-27,10,820.0,0.0
P01,2024-09-27,10,825.0,0.0
P01,2024-09-27,10,830.0,0.0
P01,2024-09-27,10,835.0,0.0
P01,2024-09-27,10,840.0,0.0
P01,2024-09-27,10,845.0,0.0
P01,2024-09-27,10,850.0,0.0
P01,2024-09-27,10,855.0,0.0
P01,2024-09-27,10,860.0,0.0
P01,2024-09-27,10,865.0,0.0
P01,2024-09-27,10,870.0,0.0
P01,2024-09-27,10,875.0,0.0
P01,2024-09-27,10,880.0,0.0
P01,2024-09-27,10,885.0,0.0
P01,2024-09-27,10,890.0,0.0
P01,2024-09-27,10,895.0,0.0
P01,2024-09-27,10,900.0,0.0
P01,2024-09-27,10,905.0,0.0
P01,2024-09-27,10,910.0,0.0
P01,2024-09-27,10,915.0,0.0
P01,2024-09-27,10,920.0,0.0
P01,2024-09-27,10,925.0,0.0
P01,2024-09-27,10,930.0,0.0
P01,2024-09-27,10,935.0,0.0
P01,2024-09-27,10,940.0,0.0
P01,2024-09-27,10,945.0,0.0
P01,2024-09-27,10,950.0,0.0
P01,2024-09-27,10,955.0,0.0
P01,2024-09-27,10,960.0,0.0
P01,2024-09-27,10,965.0,0.0
P01,2024-09-27,10,970.0,0.0
P01,2024-09-27,10,975.0,0.0
P01,2024-09-27,10,980.0,0.0
P01,2024-09-27,10,985.0,0.0
P01,2024-09-27,10,990.0,0.0
P01,2024-09-27,10,995.0,0.0
P01,2024-09-27,10,1000.0,0.0
P01,2024-09-27,10,1005.0,0.0
P01,2024-09-27,10,1010.0,0.0
P01,2024-09-27,10,1015.0,0.0
P01,2024-09-27,10,1020.0,0.0
P01,2024-09-27,10,1025.0,0.0
P01,2024-09-27,10,1030.0,0.0
P01,2024-09-27,10,1035.0,0.0
P01,2024-09-27,10,1040.0,0.0
P01,2024-09-27,10,1045.0,0.0
P01,2024-09-27,10,1050.0,0.0
P01,2024-09-27,10,1055.0,0.0
P01,2024-09-27,10,1060.0,0.0
P01,2024-09-27,10,1065.0,0.0
P01,2024-09-27,10,1070.0,0.0
P01,2024-09-27,10,1075.0,0.0
P01,2024-09-27,10,1080.0,0.0
P01,2024-09-27,10,1085.0,0.0
P01,2024-09-27,10,1090.0,0.0
P01,2024-09-27,10,1095.0,0.0
P01,2024-09-27,10,1100.0,0.0
P01,2024-09-27,10,1105.0,0.0
P01,2024-09-27,10,1110.0,0.0
P01,2024-09-27,10,1115.0,0.0
P01,2024-09-27,10,1120.0,0.0
P01,2024-09-27,10,1125.0,0.0
P01,2024-09-27,10,1130.0,0.0
P01,2024-09-27,10,1135.0,0.0
P01,2024-09-27,10,1140.0,0.0
P01,2024-09-27,10,1145.0,0.0
P01,2024-09-27,10,1150.0,0.0
P01,2024-09-27,10,1155.0,0.0
P01,2024-09-27,10,1160.0,0.0
P01,2024-09-27,10,1165.0,0.0
P01,2024-09-27,10,1170.0,0.0
P01,2024-09-27,10,1175.0,0.0
P01,2024-09-27,10,1180.0,0.0
P01,2024-09-27,10,1185.0,0.0
P01,2024-09-27,10,1190.0,0.0
P01,2024-09-27,10,1195.0,0.0
P01,2024-09-27,10,1200.0,0.0
P01,2024-09-27,10,1205.0,0.0
P01,2024-09-27,10,1210.0,0.0
P01,2024-09-27,10,1215.0,0.0
P01,2024-09-27,10,1220.0,0.0
P01,2024-09-27,10,1225.0,0.0
P01,2024-09-27,10,1230.0,0.0
P02,2024-10-03,6,0.0,0.0
P02,2024-10-03,6,5.0,0.0
P02,2024-10-03,6,10.0,0.0
P02,2024-10-03,6,15.0,0.0
P02,2024-10-03,6,20.0,0.0
P02,2024-10-03,6,25.0,0.0
P02,2024-10-03,6,30.0,0.0
P02,2024-10-03,6,35.0,0.0
P02,2024-10-03,6,40.0,0.0
P02,2024-10-03,6,45.0,0.0
P02,2024-10-03,6,50.0,0.0
P02,2024-10-03,6,55.0,0.0
P02,2024-10-03,6,60.0,0.0
P02,2024-10-03,6,65.0,0.0
P02,2024-10-03,6,70.0,0.0
P02,2024-10-03,6,75.0,0.0
P02,2024-10-03,6,80.0,0.0
P02,2024-10-03,6,85.0,0.0
P02,2024-10-03,6,90.0,0.0
P02,2024-10-03,6,95.0,0.0
P02,2024-10-03,6,100.0,0.0
P02,2024-10-03,6,105.0,0.0
P02,2024-10-03,6,110.0,0.0
P02,2024-10-03,6,115.0,0.0
P02,2024-10-03,6,120.0,0.0
P02,2024-10-03,6,125.0,0.0
P02,2024-10-03,6,130.0,0.0
P02,2024-10-03,6,135.0,0.0
P02,2024-10-03,6,140.0,0.0
P02,2024-10-03,6,145.0,0.0
P02,2024-10-03,6,150.0,0.0
P02,2024-10-03,6,155.0,0.0
P02,2024-10-03,6,160.0,0.0
P02,2024-10-03,6,165.0,0.0
P02,2024-10-03,6,170.0,0.0
P02,2024-10-03,6,175.0,0.0
P02,2024-10-03,6,180.0,0.0
P02,2024-10-03,6,185.0,0.0
P02,2024-10-03,6,190.0,0.0
P02,2024-10-03,6,195.0,0.0
P02,2024-10-03,6,200.0,0.0
P02,2024-10-03,6,205.0,0.0
P02,2024-10-03,6,210.0,0.0
P02,2024-10-03,6,215.0,0.0
P02,2024-10-03,6,220.0,0.0
P02,2024-10-03,6,225.0,0.0
P02,2024-10-03,6,230.0,0.0
P02,2024-10-03,6,235.0,0.0
P02,2024-10-03,6,240.0,0.0
P02,2024-10-03,6,245.0,0.0
P02,2024-10-03,6,250.0,0.0
P02,2024-10-03,6,255.0,0.0
P02,2024-10-03,6,260.0,0.0
P02,2024-10-03,6,265.0,0.0
P02,2024-10-03,6,270.0,0.0
P02,2024-10-03,6,275.0,0.0
P02,2024-10-03,6,280.0,0.0
P02,2024-10-03,6,285.0,0.0
P02,2024-10-03,6,290.0,0.0
P02,2024-10-03,6,295.0,0.0
P02,2024-10-03,6,300.0,0.0
P02,2024-10-03,6,305.0,0.0
P02,2024-10-03,6,310.0,0.0
P02,2024-10-03,6,315.0,0.0
P02,2024-10-03,6,320.0,0.0
P02,2024-10-03,6,325.0,0.0
P02,2024-10-03,6,330.0,0.0
P02,2024-10-03,6,335.0,0.0
P02,2024-10-03,6,340.0,0.0
P02,2024-10-03,6,345.0,0.0
P02,2024-10-03,6,350.0,0.0
P02,2024-10-03,6,355.0,0.0
P02,2024-10-03,6,360.0,0.0
P02,2024-10-03,6,365.0,0.0
P02,2024-10-03,6,370.0,0.0
P02,2024-10-03,6,375.0,0.0
P02,2024-10-03,6,380.0,0.0
P02,2024-10-03,6,385.0,0.0
P02,2024-10-03,6,390.0,0.0667
P02,2024-10-03,6,395.0,0.0
P02,2024-10-03,6,400.0,0.0
P02,2024-10-03,6,405.0,0.0
P02,2024-10-03,6,410.0,0.0
P02,2024-10-03,6,415.0,0.0
P02,2024-10-03,6,420.0,0.0
P02,2024-10-03,6,425.0,0.0
P02,2024-10-03,6,430.0,0.0
P02,2024-10-03,6,435.0,0.0
P02,2024-10-03,6,440.0,0.04
P02,2024-10-03,6,445.0,0.72
P02,2024-10-03,6,450.0,0.6467
P02,2024-10-03,6,455.0,0.5933
P02,2024-10-03,6,460.0,0.7067
P02,2024-10-03,6,465.0,0.7067
P02,2024-10-03,6,470.0,0.7333
P02,2024-10-03,6,475.0,0.68
P02,2024-10-03,6,480.0,0.7333
P02,2024-10-03,6,485.0,0.68
P02,2024-10-03,6,490.0,0.6867
P02,2024-10-03,6,495.0,0.7467
P02,2024-10-03,6,500.0,0.7067
P02,2024-10-03,6,505.0,0.5667
P02,2024-10-03,6,510.0,0.62
P02,2024-10-03,6,515.0,0.5933
P02,2024-10-03,6,520.0,0.6533
P02,2024-10-03,6,525.0,0.7267
P02,2024-10-03,6,530.0,0.62
P02,2024-10-03,6,535.0,0.7733
P02,2024-10-03,6,540.0,0.7333
P02,2024-10-03,6,545.0,0.5933
P02,2024-10-03,6,550.0,0.6667
P02,2024-10-03,6,555.0,0.7333
P02,2024-10-03,6,560.0,0.6333
P02,2024-10-03,6,565.0,0.7133
P02,2024-10-03,6,570.0,0.7267
P02,2024-10-03,6,575.0,0.7467
P02,2024-10-03,6,580.0,0.6867
P02,2024-10-03,6,585.0,0.72
P02,2024-10-03,6,590.0,0.6867
P02,2024-10-03,6,595.0,0.6467
P02,2024-10-03,6,600.0,0.6533
P02,2024-10-03,6,605.0,0.66
P02,2024-10-03,6,610.0,0.74
P02,2024-10-03,6,615.0,0.6467
P02,2024-10-03,6,620.0,0.5667
P02,2024-10-03,6,625.0,0.5867
P02,2024-10-03,6,630.0,0.7267
P02,2024-10-03,6,635.0,0.74
P02,2024-10-03,6,640.0,0.76
P02,2024-10-03,6,645.0,0.6
P02,2024-10-03,6,650.0,0.6333
P02,2024-10-03,6,655.0,0.64
P02,2024-10-03,6,660.0,0.76
P02,2024-10-03,6,665.0,0.6333
P02,2024-10-03,6,670.0,0.7133
P02,2024-10-03,6,675.0,0.7133
P02,2024-10-03,6,680.0,0.76
P02,2024-10-03,6,685.0,0.6333
P02,2024-10-03,6,690.0,0.7
P02,2024-10-03,6,695.0,0.7533
P02,2024-10-03,6,700.0,0.6133
P02,2024-10-03,6,705.0,0.7067
P02,2024-10-03,6,710.0,0.6933
P02,2024-10-03,6,715.0,0.7467
P02,2024-10-03,6,720.0,0.72
P02,2024-10-03,6,725.0,0.6933
P02,2024-10-03,6,730.0,0.68
P02,2024-10-03,6,735.0,0.6467
P02,2024-10-03,6,740.0,0.66
P02,2024-10-03,6,745.0,0.6867
P02,2024-10-03,6,750.0,0.6533
P02,2024-10-03,6,755.0,0.64
P02,2024-10-03,6,760.0,0.6
P02,2024-10-03,6,765.0,0.6133
P02,2024-10-03,6,770.0,0.7067
P02,2024-10-03,6,775.0,0.64
P02,2024-10-03,6,780.0,0.7533
P02,2024-10-03,6,785.0,0.6533
P02,2024-10-03,6,790.0,0.6733
P02,2024-10-03,6,795.0,0.68
P02,2024-10-03,6,800.0,0.7333
P02,2024-10-03,6,805.0,0.7
P02,2024-10-03,6,810.0,0.7
P02,2024-10-03,6,815.0,0.8067
P02,2024-10-03,6,820.0,0.6467
P02,2024-10-03,6,825.0,0.72
P02,2024-10-03,6,830.0,0.6733
P02,2024-10-03,6,835.0,0.6933
P02,2024-10-03,6,840.0,0.6867
P02,2024-10-03,6,845.0,0.7
P02,2024-10-03,6,850.0,0.7133
P02,2024-10-03,6,855.0,0.7
P02,2024-10-03,6,860.0,0.62
P02,2024-10-03,6,865.0,0.7067
P02,2024-10-03,6,870.0,0.6867
P02,2024-10-03,6,875.0,0.6267
P02,2024-10-03,6,880.0,0.7667
P02,2024-10-03,6,885.0,0.7533
P02,2024-10-03,6,890.0,0.6533
P02,2024-10-03,6,895.0,0.6267
P02,2024-10-03,6,900.0,0.6533
P02,2024-10-03,6,905.0,0.66
P02,2024-10-03,6,910.0,0.6533
P02,2024-10-03,6,915.0,0.7267
P02,2024-10-03,6,920.0,0.66
P02,2024-10-03,6,925.0,0.64
P02,2024-10-03,6,930.0,0.6533
P02,2024-10-03,6,935.0,0.5867
P02,2024-10-03,6,940.0,0.5133
P02,2024-10-03,6,945.0,0.02
P02,2024-10-03,6,950.0,0.1533
P02,2024-10-03,6,955.0,0.0267
P02,2024-10-03,6,960.0,0.0
P02,2024-10-03,6,965.0,0.0
P02,2024-10-03,6,970.0,0.0
P02,2024-10-03,6,975.0,0.0
P02,2024-10-03,6,980.0,0.0
P02,2024-10-03,6,985.0,0.0
P02,2024-10-03,6,990.0,0.0
P02,2024-10-03,6,995.0,0.0
P02,2024-10-03,6,1000.0,0.0
P02,2024-10-03,6,1005.0,0.0
P02,2024-10-03,6,1010.0,0.0
P02,2024-10-03,6,1015.0,0.0
P02,2024-10-03,6,1020.0,0.0
P02,2024-10-03,6,1025.0,0.0
P02,2024-10-03,6,1030.0,0.0
P02,2024-10-03,6,1035.0,0.0
P02,2024-10-03,6,1040.0,0.0
P02,2024-10-03,6,1045.0,0.0
P02,2024-10-03,6,1050.0,0.0
P02,2024-10-03,6,1055.0,0.0
P02,2024-10-03,6,1060.0,0.0
P02,2024-10-03,6,1065.0,0.0
P02,2024-10-03,6,1070.0,0.0
P02,2024-10-03,6,1075.0,0.0
P02,2024-10-03,6,1080.0,0.0
P02,2024-10-03,6,1085.0,0.0
P02,2024-10-03,6,1090.0,0.0
P02,2024-10-03,6,1095.0,0.0
P02,2024-10-03,6,1100.0,0.0
P02,2024-10-03,6,1105.0,0.0
P02,2024-10-03,6,1110.0,0.0
P02,2024-10-03,6,1115.0,0.0
P02,2024-10-03,6,1120.0,0.0
P02,2024-10-03,6,1125.0,0.0
P02,2024-10-03,6,1130.0,0.0
P02,2024-10-03,6,1135.0,0.0
P02,2024-10-03,6,1140.0,0.0
P02,2024-10-03,6,1145.0,0.0
P02,2024-10-03,6,1150.0,0.0
P02,2024-10-03,6,1155.0,0.0
P02,2024-10-03,6,1160.0,0.0
P02,2024-10-03,6,1165.0,0.0
P02,2024-10-03,6,1170.0,0.0
P02,2024-10-03,6,1175.0,0.0
P02,2024-10-03,6,1180.0,0.0
P02,2024-10-03,6,1185.0,0.0
P02,2024-10-03,6,1190.0,0.0
P02,2024-10-03,6,1195.0,0.0
P02,2024-10-03,6,1200.0,0.0
P02,2024-10-03,6,1205.0,0.0
P02,2024-10-03,6,1210.0,0.0
P02,2024-10-03,6,1215.0,0.0
P02,2024-10-03,6,1220.0,0.0
P02,2024-10-03,6,1225.0,0.0
P02,2024-10-03,6,1230.0,0.0
P02,2024-10-03,7,0.0,0.0
P02,2024-10-03,7,5.0,0.0
P02,2024-10-03,7,10.0,0.0
P02,2024-10-03,7,15.0,0.0
P02,2024-10-03,7,20.0,0.0
P02,2024-10-03,7,25.0,0.0
P02,2024-10-03,7,30.0,0.0
P02,2024-10-03,7,35.0,0.0
P02,2024-10-03,7,40.0,0.0
P02,2024-10-03,7,45.0,0.0
P02,2024-10-03,7,50.0,0.0
P02,2024-10-03,7,55.0,0.0
P02,2024-10-03,7,60.0,0.0
P02,2024-10-03,7,65.0,0.0
P02,2024-10-03,7,70.0,0.0
P02,2024-10-03,7,75.0,0.0
P02,2024-10-03,7,80.0,0.0
P02,2024-10-03,7,85.0,0.0
P02,2024-10-03,7,90.0,0.0
P02,2024-10-03,7,95.0,0.0
P02,2024-10-03,7,100.0,0.0
P02,2024-10-03,7,105.0,0.0
P02,2024-10-03,7,110.0,0.0
P02,2024-10-03,7,115.0,0.0
P02,2024-10-03,7,120.0,0.0
P02,2024-10-03,7,125.0,0.0
P02,2024-10-03,7,130.0,0.0
P02,2024-10-03,7,135.0,0.0
P02,2024-10-03,7,140.0,0.0
P02,2024-10-03,7,145.0,0.0
P02,2024-10-03,7,150.0,0.0
P02,2024-10-03,7,155.0,0.0
P02,2024-10-03,7,160.0,0.0
P02,2024-10-03,7,165.0,0.0
P02,2024-10-03,7,170.0,0.0
P02,2024-10-03,7,175.0,0.0
P02,2024-10-03,7,180.0,0.0
P02,2024-10-03,7,185.0,0.0
P02,2024-10-03,7,190.0,0.0
P02,2024-10-03,7,195.0,0.0
P02,2024-10-03,7,200.0,0.0
P02,2024-10-03,7,205.0,0.0
P02,2024-10-03,7,210.0,0.0
P02,2024-10-03,7,215.0,0.0
P02,2024-10-03,7,220.0,0.0
P02,2024-10-03,7,225.0,0.0
P02,2024-10-03,7,230.0,0.0
P02,2024-10-03,7,235.0,0.0
P02,2024-10-03,7,240.0,0.0
P02,2024-10-03,7,245.0,0.0
P02,2024-10-03,7,250.0,0.0
P02,2024-10-03,7,255.0,0.0
P02,2024-10-03,7,260.0,0.0
P02,2024-10-03,7,265.0,0.0
P02,2024-10-03,7,270.0,0.0
P02,2024-10-03,7,275.0,0.0
P02,2024-10-03,7,280.0,0.0
P02,2024-10-03,7,285.0,0.0
P02,2024-10-03,7,290.0,0.0
P02,2024-10-03,7,295.0,0.0
P02,2024-10-03,7,300.0,0.0
P02,2024-10-03,7,305.0,0.0
P02,2024-10-03,7,310.0,0.0
P02,2024-10-03,7,315.0,0.0
P02,2024-10-03,7,320.0,0.0
P02,2024-10-03,7,325.0,0.0
P02,2024-10-03,7,330.0,0.0
P02,2024-10-03,7,335.0,0.0
P02,2024-10-03,7,340.0,0.0
P02,2024-10-03,7,345.0,0.0
P02,2024-10-03,7,350.0,0.0
P02,2024-10-03,7,355.0,0.0
P02,2024-10-03,7,360.0,0.0
P02,2024-10-03,7,365.0,0.0
P02,2024-10-03,7,370.0,0.0
P02,2024-10-03,7,375.0,0.0
P02,2024-10-03,7,380.0,0.0
P02,2024-10-03,7,385.0,0.0
P02,2024-10-03,7,390.0,0.0
P02,2024-10-03,7,395.0,0.0
P02,2024-10-03,7,400.0,0.0
P02,2024-10-03,7,405.0,0.0
P02,2024-10-03,7,410.0,0.0
P02,2024-10-03,7,415.0,0.0
P02,2024-10-03,7,420.0,0.0
P02,2024-10-03,7,425.0,0.0
P02,2024-10-03,7,430.0,0.0
P02,2024-10-03,7,435.0,0.0
P02,2024-10-03,7,440.0,0.0
P02,2024-10-03,7,445.0,0.0
P02,2024-10-03,7,450.0,0.0
P02,2024-10-03,7,455.0,0.0
P02,2024-10-03,7,460.0,0.0
P02,2024-10-03,7,465.0,0.0
P02,2024-10-03,7,470.0,0.0
P02,2024-10-03,7,475.0,0.0
P02,2024-10-03,7,480.0,0.0
P02,2024-10-03,7,485.0,0.0
P02,2024-10-03,7,490.0,0.0
P02,2024-10-03,7,495.0,0.0
P02,2024-10-03,7,500.0,0.0
P02,2024-10-03,7,505.0,0.0
P02,2024-10-03,7,510.0,0.0
P02,2024-10-03,7,515.0,0.0
P02,2024-10-03,7,520.0,0.0
P02,2024-10-03,7,525.0,0.0
P02,2024-10-03,7,530.0,0.0
P02,2024-10-03,7,535.0,0.0
P02,2024-10-03,7,540.0,0.0
P02,2024-10-03,7,545.0,0.0
P02,2024-10-03,7,550.0,0.0
P02,2024-10-03,7,555.0,0.0
P02,2024-10-03,7,560.0,0.0
P02,2024-10-03,7,565.0,0.0
P02,2024-10-03,7,570.0,0.0
P02,2024-10-03,7,575.0,0.0
P02,2024-10-03,7,580.0,0.0
P02,2024-10-03,7,585.0,0.0
P02,2024-10-03,7,590.0,0.0
P02,2024-10-03,7,595.0,0.0
P02,2024-10-03,7,600.0,0.0
P02,2024-10-03,7,605.0,0.0
P02,2024-10-03,7,610.0,0.0
P02,2024-10-03,7,615.0,0.0
P02,2024-10-03,7,620.0,0.0
P02,2024-10-03,7,625.0,0.0
P02,2024-10-03,7,630.0,0.0
P02,2024-10-03,7,635.0,0.0
P02,2024-10-03,7,640.0,0.0
P02,2024-10-03,7,645.0,0.0
P02,2024-10-03,7,650.0,0.0
P02,2024-10-03,7,655.0,0.0
P02,2024-10-03,7,660.0,0.0
P02,2024-10-03,7,665.0,0.0
P02,2024-10-03,7,670.0,0.0
P02,2024-10-03,7,675.0,0.0
P02,2024-10-03,7,680.0,0.0
P02,2024-10-03,7,685.0,0.0
P02,2024-10-03,7,690.0,0.0
P02,2024-10-03,7,695.0,0.0
P02,2024-10-03,7,700.0,0.0
P02,2024-10-03,7,705.0,0.0
P02,2024-10-03,7,710.0,0.0
P02,2024-10-03,7,715.0,0.0
P02,2024-10-03,7,720.0,0.0
P02,2024-10-03,7,725.0,0.0
P02,2024-10-03,7,730.0,0.0
P02,2024-10-03,7,735.0,0.0
P02,2024-10-03,7,740.0,0.0
P02,2024-10-03,7,745.0,0.0
P02,2024-10-03,7,750.0,0.0
P02,2024-10-03,7,755.0,0.0
P02,2024-10-03,7,760.0,0.0
P02,2024-10-03,7,765.0,0.0
P02,2024-10-03,7,770.0,0.0
P02,2024-10-03,7,775.0,0.0
P02,2024-10-03,7,780.0,0.0
P02,2024-10-03,7,785.0,0.0
P02,2024-10-03,7,790.0,0.0
P02,2024-10-03,7,795.0,0.0
P02,2024-10-03,7,800.0,0.0
P02,2024-10-03,7,805.0,0.0
P02,2024-10-03,7,810.0,0.0
P02,2024-10-03,7,815.0,0.0
P02,2024-10-03,7,820.0,0.0
P02,2024-10-03,7,825.0,0.0
P02,2024-10-03,7,830.0,0.0
P02,2024-10-03,7,835.0,0.0
P02,2024-10-03,7,840.0,0.0
P02,2024-10-03,7,845.0,0.0
P02,2024-10-03,7,850.0,0.0
P02,2024-10-03,7,855.0,0.0
P02,2024-10-03,7,860.0,0.0
P02,2024-10-03,7,865.0,0.0
P02,2024-10-03,7,870.0,0.0
P02,2024-10-03,7,875.0,0.0
P02,2024-10-03,7,880.0,0.0
P02,2024-10-03,7,885.0,0.0
P02,2024-10-03,7,890.0,0.0
P02,2024-10-03,7,895.0,0.0
P02,2024-10-03,7,900.0,0.0
P02,2024-10-03,7,905.0,0.0
P02,2024-10-03,7,910.0,0.0
P02,2024-10-03,7,915.0,0.0
P02,2024-10-03,7,920.0,0.0
P02,2024-10-03,7,925.0,0.0
P02,2024-10-03,7,930.0,0.0
P02,2024-10-03,7,935.0,0.0
P02,2024-10-03,7,940.0,0.0
P02,2024-10-03,7,945.0,0.0
P02,2024-10-03,7,950.0,0.0
P02,2024-10-03,7,955.0,0.0
P02,2024-10-03,7,960.0,0.0
P02,2024-10-03,7,965.0,0.0
P02,2024-10-03,7,970.0,0.0
P02,2024-10-03,7,975.0,0.0
P02,2024-10-03,7,980.0,0.0
P02,2024-10-03,7,985.0,0.0
P02,2024-10-03,7,990.0,0.0
P02,2024-10-03,7,995.0,0.0
P02,2024-10-03,7,1000.0,0.0
P02,2024-10-03,7,1005.0,0.0
P02,2024-10-03,7,1010.0,0.0
P02,2024-10-03,7,1015.0,0.0
P02,2024-10-03,7,1020.0,0.0
P02,2024-10-03,7,1025.0,0.0
P02,2024-10-03,7,1030.0,0.0
P02,2024-10-03,7,1035.0,0.0
P02,2024-10-03,7,1040.0,0.0
P02,2024-10-03,7,1045.0,0.0
P02,2024-10-03,7,1050.0,0.0
P02,2024-10-03,7,1055.0,0.0
P02,2024-10-03,7,1060.0,0.0
P02,2024-10-03,7,1065.0,0.0
P02,2024-10-03,7,1070.0,0.0
P02,2024-10-03,7,1075.0,0.0
P02,2024-10-03,7,1080.0,0.0
P02,2024-10-03,7,1085.0,0.0
P02,2024-10-03,7,1090.0,0.0
P02,2024-10-03,7,1095.0,0.0
P02,2024-10-03,7,1100.0,0.0
P02,2024-10-03,7,1105.0,0.0
P02,2024-10-03,7,1110.0,0.0
P02,2024-10-03,7,1115.0,0.0
P02,2024-10-03,7,1120.0,0.0
P02,2024-10-03,7,1125.0,0.0
P02,2024-10-03,7,1130.0,0.0
P02,2024-10-03,7,1135.0,0.0
P02,2024-10-03,7,1140.0,0.0
P02,2024-10-03,7,1145.0,0.0
P02,2024-10-03,7,1150.0,0.0
P02,2024-10-03,7,1155.0,0.0
P02,2024-10-03,7,1160.0,0.0
P02,2024-10-03,7,1165.0,0.0
P02,2024-10-03,7,1170.0,0.0
P02,2024-10-03,7,1175.0,0.0
P02,2024-10-03,7,1180.0,0.0
P02,2024-10-03,7,1185.0,0.0
P02,2024-10-03,7,1190.0,0.0
P02,2024-10-03,7,1195.0,0.0
P02,2024-10-03,7,1200.0,0.0
P02,2024-10-03,7,1205.0,0.0
P02,2024-10-03,7,1210.0,0.0
P02,2024-10-03,7,1215.0,0.0
P02,2024-10-03,7,1220.0,0.0
P02,2024-10-03,7,1225.0,0.0
P02,2024-10-03,7,1230.0,0.0
P02,2024-10-03,8,0.0,1.0
P02,2024-10-03,8,5.0,1.0
P02,2024-10-03,8,10.0,1.0
P02,2024-10-03,8,15.0,1.0
P02,2024-10-03,8,20.0,1.0
P02,2024-10-03,8,25.0,1.0
P02,2024-10-03,8,30.0,1.0
P02,2024-10-03,8,35.0,1.0
P02,2024-10-03,8,40.0,1.0
P02,2024-10-03,8,45.0,1.0
P02,2024-10-03,8,50.0,1.0
P02,2024-10-03,8,55.0,1.0
P02,2024-10-03,8,60.0,1.0
P02,2024-10-03,8,65.0,1.0
P02,2024-10-03,8,70.0,1.0
P02,2024-10-03,8,75.0,1.0
P02,2024-10-03,8,80.0,1.0
P02,2024-10-03,8,85.0,1.0
P02,2024-10-03,8,90.0,1.0
P02,2024-10-03,8,95.0,1.0
P02,2024-10-03,8,100.0,1.0
P02,2024-10-03,8,105.0,1.0
P02,2024-10-03,8,110.0,1.0
P02,2024-10-03,8,115.0,1.0
P02,2024-10-03,8,120.0,1.0
P02,2024-10-03,8,125.0,1.0
P02,2024-10-03,8,130.0,1.0
P02,2024-10-03,8,135.0,1.0
P02,2024-10-03,8,140.0,1.0
P02,2024-10-03,8,145.0,1.0
P02,2024-10-03,8,150.0,1.0
P02,2024-10-03,8,155.0,1.0
P02,2024-10-03,8,160.0,1.0
P02,2024-10-03,8,165.0,1.0
P02,2024-10-03,8,170.0,1.0
P02,2024-10-03,8,175.0,1.0
P02,2024-10-03,8,180.0,1.0
P02,2024-10-03,8,185.0,1.0
P02,2024-10-03,8,190.0,1.0
P02,2024-10-03,8,195.0,1.0
P02,2024-10-03,8,200.0,1.0
P02,2024-10-03,8,205.0,1.0
P02,2024-10-03,8,210.0,1.0
P02,2024-10-03,8,215.0,1.0
P02,2024-10-03,8,220.0,1.0
P02,2024-10-03,8,225.0,1.0
P02,2024-10-03,8,230.0,1.0
P02,2024-10-03,8,235.0,1.0
P02,2024-10-03,8,240.0,1.0
P02,2024-10-03,8,245.0,1.0
P02,2024-10-03,8,250.0,1.0
P02,2024-10-03,8,255.0,1.0
P02,2024-10-03,8,260.0,1.0
P02,2024-10-03,8,265.0,1.0
P02,2024-10-03,8,270.0,1.0
P02,2024-10-03,8,275.0,1.0
P02,2024-10-03,8,280.0,1.0
P02,2024-10-03,8,285.0,1.0
P02,2024-10-03,8,290.0,1.0
P02,2024-10-03,8,295.0,1.0
P02,2024-10-03,8,300.0,1.0
P02,2024-10-03,8,305.0,1.0
P02,2024-10-03,8,310.0,1.0
P02,2024-10-03,8,315.0,1.0
P02,2024-10-03,8,320.0,1.0
P02,2024-10-03,8,325.0,1.0
P02,2024-10-03,8,330.0,1.0
P02,2024-10-03,8,335.0,1.0
P02,2024-10-03,8,340.0,1.0
P02,2024-10-03,8,345.0,1.0
P02,2024-10-03,8,350.0,1.0
P02,2024-10-03,8,355.0,1.0
P02,2024-10-03,8,360.0,1.0
P02,2024-10-03,8,365.0,1.0
P02,2024-10-03,8,370.0,1.0
P02,2024-10-03,8,375.0,1.0
P02,2024-10-03,8,380.0,1.0
P02,2024-10-03,8,385.0,1.0
P02,2024-10-03,8,390.0,1.0
P02,2024-10-03,8,395.0,1.0
P02,2024-10-03,8,400.0,1.0
P02,2024-10-03,8,405.0,1.0
P02,2024-10-03,8,410.0,1.0
P02,2024-10-03,8,415.0,1.0
P02,2024-10-03,8,420.0,1.0
P02,2024-10-03,8,425.0,1.0
P02,2024-10-03,8,430.0,1.0
P02,2024-10-03,8,435.0,1.0
P02,2024-10-03,8,440.0,1.0
P02,2024-10-03,8,445.0,1.0
P02,2024-10-03,8,450.0,1.0
P02,2024-10-03,8,455.0,1.0
P02,2024-10-03,8,460.0,1.0
P02,2024-10-03,8,465.0,1.0
P02,2024-10-03,8,470.0,1.0
P02,2024-10-03,8,475.0,1.0
P02,2024-10-03,8,480.0,1.0
P02,2024-10-03,8,485.0,1.0
P02,2024-10-03,8,490.0,1.0
P02,2024-10-03,8,495.0,1.0
P02,2024-10-03,8,500.0,1.0
P02,2024-10-03,8,505.0,1.0
P02,2024-10-03,8,510.0,1.0
P02,2024-10-03,8,515.0,1.0
P02,2024-10-03,8,520.0,1.0
P02,2024-10-03,8,525.0,1.0
P02,2024-10-03,8,530.0,1.0
P02,2024-10-03,8,535.0,1.0
P02,2024-10-03,8,540.0,1.0
P02,2024-10-03,8,545.0,1.0
P02,2024-10-03,8,550.0,1.0
P02,2024-10-03,8,555.0,1.0
P02,2024-10-03,8,560.0,1.0
P02,2024-10-03,8,565.0,1.0
P02,2024-10-03,8,570.0,1.0
P02,2024-10-03,8,575.0,1.0
P02,2024-10-03,8,580.0,1.0
P02,2024-10-03,8,585.0,1.0
P02,2024-10-03,8,590.0,1.0
P02,2024-10-03,8,595.0,1.0
P02,2024-10-03,8,600.0,1.0
P02,2024-10-03,8,605.0,1.0
P02,2024-10-03,8,610.0,1.0
P02,2024-10-03,8,615.0,1.0
P02,2024-10-03,8,620.0,1.0
P02,2024-10-03,8,625.0,1.0
P02,2024-10-03,8,630.0,1.0
P02,2024-10-03,8,635.0,1.0
P02,2024-10-03,8,640.0,1.0
P02,2024-10-03,8,645.0,1.0
P02,2024-10-03,8,650.0,1.0
P02,2024-10-03,8,655.0,1.0
P02,2024-10-03,8,660.0,1.0
P02,2024-10-03,8,665.0,1.0
P02,2024-10-03,8,670.0,1.0
P02,2024-10-03,8,675.0,1.0
P02,2024-10-03,8,680.0,1.0
P02,2024-10-03,8,685.0,1.0
P02,2024-10-03,8,690.0,1.0
P02,2024-10-03,8,695.0,1.0
P02,2024-10-03,8,700.0,1.0
P02,2024-10-03,8,705.0,1.0
P02,2024-10-03,8,710.0,1.0
P02,2024-10-03,8,715.0,1.0
P02,2024-10-03,8,720.0,1.0
P02,2024-10-03,8,725.0,1.0
P02,2024-10-03,8,730.0,1.0
P02,2024-10-03,8,735.0,1.0
P02,2024-10-03,8,740.0,1.0
P02,2024-10-03,8,745.0,1.0
P02,2024-10-03,8,750.0,1.0
P02,2024-10-03,8,755.0,1.0
P02,2024-10-03,8,760.0,1.0
P02,2024-10-03,8,765.0,1.0
P02,2024-10-03,8,770.0,1.0
P02,2024-10-03,8,775.0,1.0
P02,2024-10-03,8,780.0,1.0
P02,2024-10-03,8,785.0,1.0
P02,2024-10-03,8,790.0,1.0
P02,2024-10-03,8,795.0,1.0
P02,2024-10-03,8,800.0,1.0
P02,2024-10-03,8,805.0,1.0
P02,2024-10-03,8,810.0,1.0
P02,2024-10-03,8,815.0,1.0
P02,2024-10-03,8,820.0,1.0
P02,2024-10-03,8,825.0,1.0
P02,2024-10-03,8,830.0,1.0
P02,2024-10-03,8,835.0,1.0
P02,2024-10-03,8,840.0,1.0
P02,2024-10-03,8,845.0,1.0
P02,2024-10-03,8,850.0,1.0
P02,2024-10-03,8,855.0,1.0
P02,2024-10-03,8,860.0,1.0
P02,2024-10-03,8,865.0,1.0
P02,2024-10-03,8,870.0,1.0
P02,2024-10-03,8,875.0,1.0
P02,2024-10-03,8,880.0,1.0
P02,2024-10-03,8,885.0,1.0
P02,2024-10-03,8,890.0,1.0
P02,2024-10-03,8,895.0,1.0
P02,2024-10-03,8,900.0,1.0
P02,2024-10-03,8,905.0,1.0
P02,2024-10-03,8,910.0,1.0
P02,2024-10-03,8,915.0,1.0
P02,2024-10-03,8,920.0,1.0
P02,2024-10-03,8,925.0,1.0
P02,2024-10-03,8,930.0,1.0
P02,2024-10-03,8,935.0,1.0
P02,2024-10-03,8,940.0,1.0
P02,2024-10-03,8,945.0,1.0
P02,2024-10-03,8,950.0,1.0
P02,2024-10-03,8,955.0,1.0
P02,2024-10-03,8,960.0,1.0
P02,2024-10-03,8,965.0,1.0
P02,2024-10-03,8,970.0,1.0
P02,2024-10-03,8,975.0,1.0
P02,2024-10-03,8,980.0,1.0
P02,2024-10-03,8,985.0,1.0
P02,2024-10-03,8,990.0,1.0
P02,2024-10-03,8,995.0,1.0
P02,2024-10-03,8,1000.0,1.0
P02,2024-10-03,8,1005.0,1.0
P02,2024-10-03,8,1010.0,1.0
P02,2024-10-03,8,1015.0,1.0
P02,2024-10-03,8,1020.0,1.0
P02,2024-10-03,8,1025.0,1.0
P02,2024-10-03,8,1030.0,1.0
P02,2024-10-03,8,1035.0,1.0
P02,2024-10-03,8,1040.0,1.0
P02,2024-10-03,8,1045.0,1.0
P02,2024-10-03,8,1050.0,1.0
P02,2024-10-03,8,1055.0,1.0
P02,2024-10-03,8,1060.0,1.0
P02,2024-10-03,8,1065.0,1.0
P02,2024-10-03,8,1070.0,1.0
P02,2024-10-03,8,1075.0,1.0
P02,2024-10-03,8,1080.0,1.0
P02,2024-10-03,8,1085.0,1.0
P02,2024-10-03,8,1090.0,1.0
P02,2024-10-03,8,1095.0,1.0
P02,2024-10-03,8,1100.0,1.0
P02,2024-10-03,8,1105.0,1.0
P02,2024-10-03,8,1110.0,1.0
P02,2024-10-03,8,1115.0,1.0
P02,2024-10-03,8,1120.0,1.0
P02,2024-10-03,8,1125.0,1.0
P02,2024-10-03,8,1130.0,1.0
P02,2024-10-03,8,1135.0,1.0
P02,2024-10-03,8,1140.0,1.0
P02,2024-10-03,8,1145.0,1.0
P02,2024-10-03,8,1150.0,1.0
P02,2024-10-03,8,1155.0,1.0
P02,2024-10-03,8,1160.0,1.0
P02,2024-10-03,8,1165.0,1.0
P02,2024-10-03,8,1170.0,1.0
P02,2024-10-03,8,1175.0,1.0
P02,2024-10-03,8,1180.0,1.0
P02,2024-10-03,8,1185.0,1.0
P02,2024-10-03,8,1190.0,1.0
P02,2024-10-03,8,1195.0,1.0
P02,2024-10-03,8,1200.0,1.0
P02,2024-10-03,8,1205.0,1.0
P02,2024-10-03,8,1210.0,1.0
P02,2024-10-03,8,1215.0,1.0
P02,2024-10-03,8,1220.0,1.0
P02,2024-10-03,8,1225.0,1.0
P02,2024-10-03,8,1230.0,1.0
P02,2024-10-03,9,0.0,1.0
P02,2024-10-03,9,5.0,1.0
P02,2024-10-03,9,10.0,1.0
P02,2024-10-03,9,15.0,1.0
P02,2024-10-03,9,20.0,1.0
P02,2024-10-03,9,25.0,1.0
P02,2024-10-03,9,30.0,1.0
P02,2024-10-03,9,35.0,1.0
P02,2024-10-03,9,40.0,1.0
P02,2024-10-03,9,45.0,1.0
P02,2024-10-03,9,50.0,1.0
P02,2024-10-03,9,55.0,1.0
P02,2024-10-03,9,60.0,1.0
P02,2024-10-03,9,65.0,1.0
P02,2024-10-03,9,70.0,1.0
P02,2024-10-03,9,75.0,1.0
P02,2024-10-03,9,80.0,1.0
P02,2024-10-03,9,85.0,1.0
P02,2024-10-03,9,90.0,1.0
P02,2024-10-03,9,95.0,1.0
P02,2024-10-03,9,100.0,1.0
P02,2024-10-03,9,105.0,1.0
P02,2024-10-03,9,110.0,1.0
P02,2024-10-03,9,115.0,1.0
P02,2024-10-03,9,120.0,1.0
P02,2024-10-03,9,125.0,1.0
P02,2024-10-03,9,130.0,1.0
P02,2024-10-03,9,135.0,1.0
P02,2024-10-03,9,140.0,1.0
P02,2024-10-03,9,145.0,1.0
P02,2024-10-03,9,150.0,1.0
P02,2024-10-03,9,155.0,1.0
P02,2024-10-03,9,160.0,1.0
P02,2024-10-03,9,165.0,1.0
P02,2024-10-03,9,170.0,1.0
P02,2024-10-03,9,175.0,1.0
P02,2024-10-03,9,180.0,1.0
P02,2024-10-03,9,185.0,1.0
P02,2024-10-03,9,190.0,1.0
P02,2024-10-03,9,195.0,1.0
P02,2024-10-03,9,200.0,1.0
P02,2024-10-03,9,205.0,1.0
P02,2024-10-03,9,210.0,1.0
P02,2024-10-03,9,215.0,1.0
P02,2024-10-03,9,220.0,1.0
P02,2024-10-03,9,225.0,1.0
P02,2024-10-03,9,230.0,1.0
P02,2024-10-03,9,235.0,1.0
P02,2024-10-03,9,240.0,1.0
P02,2024-10-03,9,245.0,1.0
P02,2024-10-03,9,250.0,1.0
P02,2024-10-03,9,255.0,1.0
P02,2024-10-03,9,260.0,1.0
P02,2024-10-03,9,265.0,1.0
P02,2024-10-03,9,270.0,1.0
P02,2024-10-03,9,275.0,1.0
P02,2024-10-03,9,280.0,1.0
P02,2024-10-03,9,285.0,1.0
P02,2024-10-03,9,290.0,1.0
P02,2024-10-03,9,295.0,1.0
P02,2024-10-03,9,300.0,1.0
P02,2024-10-03,9,305.0,1.0
P02,2024-10-03,9,310.0,1.0
P02,2024-10-03,9,315.0,1.0
P02,2024-10-03,9,320.0,1.0
P02,2024-10-03,9,325.0,1.0
P02,2024-10-03,9,330.0,1.0
P02,2024-10-03,9,335.0,1.0
P02,2024-10-03,9,340.0,1.0
P02,2024-10-03,9,345.0,1.0
P02,2024-10-03,9,350.0,1.0
P02,2024-10-03,9,355.0,1.0
P02,2024-10-03,9,360.0,1.0
P02,2024-10-03,9,365.0,1.0
P02,2024-10-03,9,370.0,1.0
P02,2024-10-03,9,375.0,1.0
P02,2024-10-03,9,380.0,1.0
P02,2024-10-03,9,385.0,1.0
P02,2024-10-03,9,390.0,1.0
P02,2024-10-03,9,395.0,1.0
P02,2024-10-03,9,400.0,1.0
P02,2024-10-03,9,405.0,1.0
P02,2024-10-03,9,410.0,1.0
P02,2024-10-03,9,415.0,1.0
P02,2024-10-03,9,420.0,1.0
P02,2024-10-03,9,425.0,1.0
P02,2024-10-03,9,430.0,1.0
P02,2024-10-03,9,435.0,1.0
P02,2024-10-03,9,440.0,1.0
P02,2024-10-03,9,445.0,1.0
P02,2024-10-03,9,450.0,1.0
P02,2024-10-03,9,455.0,1.0
P02,2024-10-03,9,460.0,1.0
P02,2024-10-03,9,465.0,1.0
P02,2024-10-03,9,470.0,1.0
P02,2024-10-03,9,475.0,1.0
P02,2024-10-03,9,480.0,1.0
P02,2024-10-03,9,485.0,1.0
P02,2024-10-03,9,490.0,1.0
P02,2024-10-03,9,495.0,1.0
P02,2024-10-03,9,500.0,1.0
P02,2024-10-03,9,505.0,1.0
P02,2024-10-03,9,510.0,1.0
P02,2024-10-03,9,515.0,1.0
P02,2024-10-03,9,520.0,1.0
P02,2024-10-03,9,525.0,1.0
P02,2024-10-03,9,530.0,1.0
P02,2024-10-03,9,535.0,1.0
P02,2024-10-03,9,540.0,1.0
P02,2024-10-03,9,545.0,1.0
P02,2024-10-03,9,550.0,1.0
P02,2024-10-03,9,555.0,1.0
P02,2024-10-03,9,560.0,1.0
P02,2024-10-03,9,565.0,1.0
P02,2024-10-03,9,570.0,1.0
P02,2024-10-03,9,575.0,1.0
P02,2024-10-03,9,580.0,1.0
P02,2024-10-03,9,585.0,1.0
P02,2024-10-03,9,590.0,1.0
P02,2024-10-03,9,595.0,1.0
P02,2024-10-03,9,600.0,1.0
P02,2024-10-03,9,605.0,1.0
P02,2024-10-03,9,610.0,1.0
P02,2024-10-03,9,615.0,1.0
P02,2024-10-03,9,620.0,1.0
P02,2024-10-03,9,625.0,1.0
P02,2024-10-03,9,630.0,1.0
P02,2024-10-03,9,635.0,1.0
P02,2024-10-03,9,640.0,1.0
P02,2024-10-03,9,645.0,1.0
P02,2024-10-03,9,650.0,1.0
P02,2024-10-03,9,655.0,1.0
P02,2024-10-03,9,660.0,1.0
P02,2024-10-03,9,665.0,1.0
P02,2024-10-03,9,670.0,1.0
P02,2024-10-03,9,675.0,1.0
P02,2024-10-03,9,680.0,1.0
P02,2024-10-03,9,685.0,1.0
P02,2024-10-03,9,690.0,1.0
P02,2024-10-03,9,695.0,1.0
P02,2024-10-03,9,700.0,1.0
P02,2024-10-03,9,705.0,1.0
P02,2024-10-03,9,710.0,1.0
P02,2024-10-03,9,715.0,1.0
P02,2024-10-03,9,720.0,1.0
P02,2024-10-03,9,725.0,1.0
P02,2024-10-03,9,730.0,1.0
P02,2024-10-03,9,735.0,1.0
P02,2024-10-03,9,740.0,1.0
P02,2024-10-03,9,745.0,1.0
P02,2024-10-03,9,750.0,1.0
P02,2024-10-03,9,755.0,1.0
P02,2024-10-03,9,760.0,1.0
P02,2024-10-03,9,765.0,1.0
P02,2024-10-03,9,770.0,1.0
P02,2024-10-03,9,775.0,1.0
P02,2024-10-03,9,780.0,1.0
P02,2024-10-03,9,785.0,1.0
P02,2024-10-03,9,790.0,1.0
P02,2024-10-03,9,795.0,1.0
P02,2024-10-03,9,800.0,1.0
P02,2024-10-03,9,805.0,1.0
P02,2024-10-03,9,810.0,1.0
P02,2024-10-03,9,815.0,1.0
P02,2024-10-03,9,820.0,1.0
P02,2024-10-03,9,825.0,1.0
P02,2024-10-03,9,830.0,1.0
P02,2024-10-03,9,835.0,1.0
P02,2024-10-03,9,840.0,1.0
P02,2024-10-03,9,845.0,1.0
P02,2024-10-03,9,850.0,1.0
P02,2024-10-03,9,855.0,1.0
P02,2024-10-03,9,860.0,1.0
P02,2024-10-03,9,865.0,1.0
P02,2024-10-03,9,870.0,1.0
P02,2024-10-03,9,875.0,1.0
P02,2024-10-03,9,880.0,1.0
P02,2024-10-03,9,885.0,1.0
P02,2024-10-03,9,890.0,1.0
P02,2024-10-03,9,895.0,1.0
P02,2024-10-03,9,900.0,1.0
P02,2024-10-03,9,905.0,1.0
P02,2024-10-03,9,910.0,1.0
P02,2024-10-03,9,915.0,1.0
P02,2024-10-03,9,920.0,1.0
P02,2024-10-03,9,925.0,1.0
P02,2024-10-03,9,930.0,1.0
P02,2024-10-03,9,935.0,1.0
P02,2024-10-03,9,940.0,1.0
P02,2024-10-03,9,945.0,1.0
P02,2024-10-03,9,950.0,1.0
P02,2024-10-03,9,955.0,1.0
P02,2024-10-03,9,960.0,1.0
P02,2024-10-03,9,965.0,1.0
P02,2024-10-03,9,970.0,1.0
P02,2024-10-03,9,975.0,1.0
P02,2024-10-03,9,980.0,1.0
P02,2024-10-03,9,985.0,1.0
P02,2024-10-03,9,990.0,1.0
P02,2024-10-03,9,995.0,1.0
P02,2024-10-03,9,1000.0,1.0
P02,2024-10-03,9,1005.0,1.0
P02,2024-10-03,9,1010.0,1.0
P02,2024-10-03,9,1015.0,1.0
P02,2024-10-03,9,1020.0,1.0
P02,2024-10-03,9,1025.0,1.0
P02,2024-10-03,9,1030.0,1.0
P02,2024-10-03,9,1035.0,1.0
P02,2024-10-03,9,1040.0,1.0
P02,2024-10-03,9,1045.0,1.0
P02,2024-10-03,9,1050.0,1.0
P02,2024-10-03,9,1055.0,1.0
P02,2024-10-03,9,1060.0,1.0
P02,2024-10-03,9,1065.0,1.0
P02,2024-10-03,9,1070.0,1.0
P02,2024-10-03,9,1075.0,1.0
P02,2024-10-03,9,1080.0,1.0
P02,2024-10-03,9,1085.0,1.0
P02,2024-10-03,9,1090.0,1.0
P02,2024-10-03,9,1095.0,1.0
P02,2024-10-03,9,1100.0,1.0
P02,2024-10-03,9,1105.0,1.0
P02,2024-10-03,9,1110.0,1.0
P02,2024-10-03,9,1115.0,1.0
P02,2024-10-03,9,1120.0,1.0
P02,2024-10-03,9,1125.0,1.0
P02,2024-10-03,9,1130.0,1.0
P02,2024-10-03,9,1135.0,1.0
P02,2024-10-03,9,1140.0,1.0
P02,2024-10-03,9,1145.0,1.0
P02,2024-10-03,9,1150.0,1.0
P02,2024-10-03,9,1155.0,1.0
P02,2024-10-03,9,1160.0,1.0
P02,2024-10-03,9,1165.0,1.0
P02,2024-10-03,9,1170.0,1.0
P02,2024-10-03,9,1175.0,1.0
P02,2024-10-03,9,1180.0,1.0
P02,2024-10-03,9,1185.0,1.0
P02,2024-10-03,9,1190.0,1.0
P02,2024-10-03,9,1195.0,1.0
P02,2024-10-03,9,1200.0,1.0
P02,2024-10-03,9,1205.0,1.0
P02,2024-10-03,9,1210.0,1.0
P02,2024-10-03,9,1215.0,1.0
P02,2024-10-03,9,1220.0,1.0
P02,2024-10-03,9,1225.0,1.0
P02,2024-10-03,9,1230.0,1.0
P02,2024-10-03,10,0.0,0.0
P02,2024-10-03,10,5.0,0.0
P02,2024-10-03,10,10.0,0.0
P02,2024-10-03,10,15.0,0.0
P02,2024-10-03,10,20.0,0.0
P02,2024-10-03,10,25.0,0.0
P02,2024-10-03,10,30.0,0.0
P02,2024-10-03,10,35.0,0.0
P02,2024-10-03,10,40.0,0.0
P02,2024-10-03,10,45.0,0.0
P02,2024-10-03,10,50.0,0.0
P02,2024-10-03,10,55.0,0.0
P02,2024-10-03,10,60.0,0.0
P02,2024-10-03,10,65.0,0.0
P02,2024-10-03,10,70.0,0.0
P02,2024-10-03,10,75.0,0.0
P02,2024-10-03,10,80.0,0.0
P02,2024-10-03,10,85.0,0.0
P02,2024-10-03,10,90.0,0.0
P02,2024-10-03,10,95.0,0.0
P02,2024-10-03,10,100.0,0.0
P02,2024-10-03,10,105.0,0.0
P02,2024-10-03,10,110.0,0.0
P02,2024-10-03,10,115.0,0.0
P02,2024-10-03,10,120.0,0.0
P02,2024-10-03,10,125.0,0.0
P02,2024-10-03,10,130.0,0.0
P02,2024-10-03,10,135.0,0.0
P02,2024-10-03,10,140.0,0.0
P02,2024-10-03,10,145.0,0.0
P02,2024-10-03,10,150.0,0.0
P02,2024-10-03,10,155.0,0.0
P02,2024-10-03,10,160.0,0.0
P02,2024-10-03,10,165.0,0.0
P02,2024-10-03,10,170.0,0.0
P02,2024-10-03,10,175.0,0.0
P02,2024-10-03,10,180.0,0.0
P02,2024-10-03,10,185.0,0.0
P02,2024-10-03,10,190.0,0.0
P02,2024-10-03,10,195.0,0.0
P02,2024-10-03,10,200.0,0.0
P02,2024-10-03,10,205.0,0.0
P02,2024-10-03,10,210.0,0.0
P02,2024-10-03,10,215.0,0.0
P02,2024-10-03,10,220.0,0.0
P02,2024-10-03,10,225.0,0.0
P02,2024-10-03,10,230.0,0.0
P02,2024-10-03,10,235.0,0.0
P02,2024-10-03,10,240.0,0.0
P02,2024-10-03,10,245.0,0.0
P02,2024-10-03,10,250.0,0.0
P02,2024-10-03,10,255.0,0.0
P02,2024-10-03,10,260.0,0.0
P02,2024-10-03,10,265.0,0.0
P02,2024-10-03,10,270.0,0.0
P02,2024-10-03,10,275.0,0.0
P02,2024-10-03,10,280.0,0.0
P02,2024-10-03,10,285.0,0.0
P02,2024-10-03,10,290.0,0.0
P02,2024-10-03,10,295.0,0.0
P02,2024-10-03,10,300.0,0.0
P02,2024-10-03,10,305.0,0.0
P02,2024-10-03,10,310.0,0.0
P02,2024-10-03,10,315.0,0.0
P02,2024-10-03,10,320.0,0.0
P02,2024-10-03,10,325.0,0.0
P02,2024-10-03,10,330.0,0.0
P02,2024-10-03,10,335.0,0.0
P02,2024-10-03,10,340.0,0.0
P02,2024-10-03,10,345.0,0.0
P02,2024-10-03,10,350.0,0.0
P02,2024-10-03,10,355.0,0.0
P02,2024-10-03,10,360.0,0.0
P02,2024-10-03,10,365.0,0.0
P02,2024-10-03,10,370.0,0.0
P02,2024-10-03,10,375.0,0.0
P02,2024-10-03,10,380.0,0.0
P02,2024-10-03,10,385.0,0.0
P02,2024-10-03,10,390.0,0.0
P02,2024-10-03,10,395.0,0.0
P02,2024-10-03,10,400.0,0.0
P02,2024-10-03,10,405.0,0.0
P02,2024-10-03,10,410.0,0.0
P02,2024-10-03,10,415.0,0.0
P02,2024-10-03,10,420.0,0.0
P02,2024-10-03,10,425.0,0.0
P02,2024-10-03,10,430.0,0.0
P02,2024-10-03,10,435.0,0.0
P02,2024-10-03,10,440.0,0.0
P02,2024-10-03,10,445.0,0.0
P02,2024-10-03,10,450.0,0.0
P02,2024-10-03,10,455.0,0.0
P02,2024-10-03,10,460.0,0.0
P02,2024-10-03,10,465.0,0.0
P02,2024-10-03,10,470.0,0.0
P02,2024-10-03,10,475.0,0.0
P02,2024-10-03,10,480.0,0.0
P02,2024-10-03,10,485.0,0.0
P02,2024-10-03,10,490.0,0.0
P02,2024-10-03,10,495.0,0.0
P02,2024-10-03,10,500.0,0.0
P02,2024-10-03,10,505.0,0.0
P02,2024-10-03,10,510.0,0.0
P02,2024-10-03,10,515.0,0.0
P02,2024-10-03,10,520.0,0.0
P02,2024-10-03,10,525.0,0.0
P02,2024-10-03,10,530.0,0.0
P02,2024-10-03,10,535.0,0.0
P02,2024-10-03,10,540.0,0.0
P02,2024-10-03,10,545.0,0.0
P02,2024-10-03,10,550.0,0.0
P02,2024-10-03,10,555.0,0.0
P02,2024-10-03,10,560.0,0.0
P02,2024-10-03,10,565.0,0.0
P02,2024-10-03,10,570.0,0.0
P02,2024-10-03,10,575.0,0.0
P02,2024-10-03,10,580.0,0.0
P02,2024-10-03,10,585.0,0.0
P02,2024-10-03,10,590.0,0.0
P02,2024-10-03,10,595.0,0.0
P02,2024-10-03,10,600.0,0.0
P02,2024-10-03,10,605.0,0.0
P02,2024-10-03,10,610.0,0.0
P02,2024-10-03,10,615.0,0.0
P02,2024-10-03,10,620.0,0.0
P02,2024-10-03,10,625.0,0.0
P02,2024-10-03,10,630.0,0.0
P02,2024-10-03,10,635.0,0.0
P02,2024-10-03,10,640.0,0.0
P02,2024-10-03,10,645.0,0.0
P02,2024-10-03,10,650.0,0.0
P02,2024-10-03,10,655.0,0.0
P02,2024-10-03,10,660.0,0.0
P02,2024-10-03,10,665.0,0.0
P02,2024-10-03,10,670.0,0.0
P02,2024-10-03,10,675.0,0.0
P02,2024-10-03,10,680.0,0.0
P02,2024-10-03,10,685.0,0.0
P02,2024-10-03,10,690.0,0.0
P02,2024-10-03,10,695.0,0.0
P02,2024-10-03,10,700.0,0.0
P02,2024-10-03,10,705.0,0.0
P02,2024-10-03,10,710.0,0.0
P02,2024-10-03,10,715.0,0.0
P02,2024-10-03,10,720.0,0.0
P02,2024-10-03,10,725.0,0.0
P02,2024-10-03,10,730.0,0.0
P02,2024-10-03,10,735.0,0.0
P02,2024-10-03,10,740.0,0.0
P02,2024-10-03,10,745.0,0.0
P02,2024-10-03,10,750.0,0.0
P02,2024-10-03,10,755.0,0.0
P02,2024-10-03,10,760.0,0.0
P02,2024-10-03,10,765.0,0.0
P02,2024-10-03,10,770.0,0.0
P02,2024-10-03,10,775.0,0.0
P02,2024-10-03,10,780.0,0.0
P02,2024-10-03,10,785.0,0.0
P02,2024-10-03,10,790.0,0.0
P02,2024-10-03,10,795.0,0.0
P02,2024-10-03,10,800.0,0.0
P02,2024-10-03,10,805.0,0.0
P02,2024-10-03,10,810.0,0.0
P02,2024-10-03,10,815.0,0.0
P02,2024-10-03,10,820.0,0.0
P02,2024-10-03,10,825.0,0.0
P02,2024-10-03,10,830.0,0.0
P02,2024-10-03,10,835.0,0.0
P02,2024-10-03,10,840.0,0.0
P02,2024-10-03,10,845.0,0.0
P02,2024-10-03,10,850.0,0.0
P02,2024-10-03,10,855.0,0.0
P02,2024-10-03,10,860.0,0.0
P02,2024-10-03,10,865.0,0.0
P02,2024-10-03,10,870.0,0.0
P02,2024-10-03,10,875.0,0.0
P02,2024-10-03,10,880.0,0.0
P02,2024-10-03,10,885.0,0.0
P02,2024-10-03,10,890.0,0.0
P02,2024-10-03,10,895.0,0.0
P02,2024-10-03,10,900.0,0.0
P02,2024-10-03,10,905.0,0.0
P02,2024-10-03,10,910.0,0.0
P02,2024-10-03,10,915.0,0.0
P02,2024-10-03,10,920.0,0.0
P02,2024-10-03,10,925.0,0.0
P02,2024-10-03,10,930.0,0.0
P02,2024-10-03,10,935.0,0.0
P02,2024-10-03,10,940.0,0.0
P02,2024-10-03,10,945.0,0.0
P02,2024-10-03,10,950.0,0.0
P02,2024-10-03,10,955.0,0.0
P02,2024-10-03,10,960.0,0.0
P02,2024-10-03,10,965.0,0.0
P02,2024-10-03,10,970.0,0.0
P02,2024-10-03,10,975.0,0.0
P02,2024-10-03,10,980.0,0.0
P02,2024-10-03,10,985.0,0.0
P02,2024-10-03,10,990.0,0.0
P02,2024-10-03,10,995.0,0.0
P02,2024-10-03,10,1000.0,0.0
P02,2024-10-03,10,1005.0,0.0
P02,2024-10-03,10,1010.0,0.0
P02,2024-10-03,10,1015.0,0.0
P02,2024-10-03,10,1020.0,0.0
P02,2024-10-03,10,1025.0,0.0
P02,2024-10-03,10,1030.0,0.0
P02,2024-10-03,10,1035.0,0.0
P02,2024-10-03,10,1040.0,0.0
P02,2024-10-03,10,1045.0,0.0
P02,2024-10-03,10,1050.0,0.0
P02,2024-10-03,10,1055.0,0.0
P02,2024-10-03,10,1060.0,0.0
P02,2024-10-03,10,1065.0,0.0
P02,2024-10-03,10,1070.0,0.0
P02,2024-10-03,10,1075.0,0.0
P02,2024-10-03,10,1080.0,0.0
P02,2024-10-03,10,1085.0,0.0
P02,2024-10-03,10,1090.0,0.0
P02,2024-10-03,10,1095.0,0.0
P02,2024-10-03,10,1100.0,0.0
P02,2024-10-03,10,1105.0,0.0
P02,2024-10-03,10,1110.0,0.0
P02,2024-10-03,10,1115.0,0.0
P02,2024-10-03,10,1120.0,0.0
P02,2024-10-03,10,1125.0,0.0
P02,2024-10-03,10,1130.0,0.0
P02,2024-10-03,10,1135.0,0.0
P02,2024-10-03,10,1140.0,0.0
P02,2024-10-03,10,1145.0,0.0
P02,2024-10-03,10,1150.0,0.0
P02,2024-10-03,10,1155.0,0.0
P02,2024-10-03,10,1160.0,0.0
P02,2024-10-03,10,1165.0,0.0
P02,2024-10-03,10,1170.0,0.0
P02,2024-10-03,10,1175.0,0.0
P02,2024-10-03,10,1180.0,0.0
P02,2024-10-03,10,1185.0,0.0
P02,2024-10-03,10,1190.0,0.0
P02,2024-10-03,10,1195.0,0.0
P02,2024-10-03,10,1200.0,0.0
P02,2024-10-03,10,1205.0,0.0
P02,2024-10-03,10,1210.0,0.0
P02,2024-10-03,10,1215.0,0.0
P02,2024-10-03,10,1220.0,0.0
P02,2024-10-03,10,1225.0,0.0
P02,2024-10-03,10,1230.0,0.0
P03,2024-09-23,6,0.0,0.0
P03,2024-09-23,6,5.0,0.0
P03,2024-09-23,6,10.0,0.0
P03,2024-09-23,6,15.0,0.0
P03,2024-09-23,6,20.0,0.0
P03,2024-09-23,6,25.0,0.0
P03,2024-09-23,6,30.0,0.0
P03,2024-09-23,6,35.0,0.0
P03,2024-09-23,6,40.0,0.0
P03,2024-09-23,6,45.0,0.0
P03,2024-09-23,6,50.0,0.0
P03,2024-09-23,6,55.0,0.0
P03,2024-09-23,6,60.0,0.0
P03,2024-09-23,6,65.0,0.0
P03,2024-09-23,6,70.0,0.0
P03,2024-09-23,6,75.0,0.0
P03,2024-09-23,6,80.0,0.0
P03,2024-09-23,6,85.0,0.0
P03,2024-09-23,6,90.0,0.0
P03,2024-09-23,6,95.0,0.0
P03,2024-09-23,6,100.0,0.0
P03,2024-09-23,6,105.0,0.0
P03,2024-09-23,6,110.0,0.0
P03,2024-09-23,6,115.0,0.0
P03,2024-09-23,6,120.0,0.0
P03,2024-09-23,6,125.0,0.0
P03,2024-09-23,6,130.0,0.0
P03,2024-09-23,6,135.0,0.0
P03,2024-09-23,6,140.0,0.0
P03,2024-09-23,6,145.0,0.0
P03,2024-09-23,6,150.0,0.0
P03,2024-09-23,6,155.0,0.0
P03,2024-09-23,6,160.0,0.0
P03,2024-09-23,6,165.0,0.0
P03,2024-09-23,6,170.0,0.0
P03,2024-09-23,6,175.0,0.0
P03,2024-09-23,6,180.0,0.0
P03,2024-09-23,6,185.0,0.0
P03,2024-09-23,6,190.0,0.0
P03,2024-09-23,6,195.0,0.0
P03,2024-09-23,6,200.0,0.0
P03,2024-09-23,6,205.0,0.0
P03,2024-09-23,6,210.0,0.0
P03,2024-09-23,6,215.0,0.0
P03,2024-09-23,6,220.0,0.0
P03,2024-09-23,6,225.0,0.0
P03,2024-09-23,6,230.0,0.0
P03,2024-09-23,6,235.0,0.0
P03,2024-09-23,6,240.0,0.0
P03,2024-09-23,6,245.0,0.0
P03,2024-09-23,6,250.0,0.0
P03,2024-09-23,6,255.0,0.0
P03,2024-09-23,6,260.0,0.0
P03,2024-09-23,6,265.0,0.0
P03,2024-09-23,6,270.0,0.0
P03,2024-09-23,6,275.0,0.0
P03,2024-09-23,6,280.0,0.0
P03,2024-09-23,6,285.0,0.0
P03,2024-09-23,6,290.0,0.0
P03,2024-09-23,6,295.0,0.0
P03,2024-09-23,6,300.0,0.0
P03,2024-09-23,6,305.0,0.0
P03,2024-09-23,6,310.0,0.0
P03,2024-09-23,6,315.0,0.0
P03,2024-09-23,6,320.0,0.0
P03,2024-09-23,6,325.0,0.0
P03,2024-09-23,6,330.0,0.0
P03,2024-09-23,6,335.0,0.0
P03,2024-09-23,6,340.0,0.0
P03,2024-09-23,6,345.0,0.0
P03,2024-09-23,6,350.0,0.0
P03,2024-09-23,6,355.0,0.0
P03,2024-09-23,6,360.0,0.0
P03,2024-09-23,6,365.0,0.0
P03,2024-09-23,6,370.0,0.0
P03,2024-09-23,6,375.0,0.0
P03,2024-09-23,6,380.0,0.0
P03,2024-09-23,6,385.0,0.0
P03,2024-09-23,6,390.0,0.0
P03,2024-09-23,6,395.0,0.0
P03,2024-09-23,6,400.0,0.0
P03,2024-09-23,6,405.0,0.0
P03,2024-09-23,6,410.0,0.0
P03,2024-09-23,6,415.0,0.0
P03,2024-09-23,6,420.0,0.0
P03,2024-09-23,6,425.0,0.0
P03,2024-09-23,6,430.0,0.0
P03,2024-09-23,6,435.0,0.0
P03,2024-09-23,6,440.0,0.0
P03,2024-09-23,6,445.0,0.0
P03,2024-09-23,6,450.0,0.0
P03,2024-09-23,6,455.0,0.0
P03,2024-09-23,6,460.0,0.0
P03,2024-09-23,6,465.0,0.0
P03,2024-09-23,6,470.0,0.0
P03,2024-09-23,6,475.0,0.0
P03,2024-09-23,6,480.0,0.0
P03,2024-09-23,6,485.0,0.0
P03,2024-09-23,6,490.0,0.0
P03,2024-09-23,6,495.0,0.0
P03,2024-09-23,6,500.0,0.0
P03,2024-09-23,6,505.0,0.0
P03,2024-09-23,6,510.0,0.0
P03,2024-09-23,6,515.0,0.0
P03,2024-09-23,6,520.0,0.0
P03,2024-09-23,6,525.0,0.0
P03,2024-09-23,6,530.0,0.0
P03,2024-09-23,6,535.0,0.0
P03,2024-09-23,6,540.0,0.0
P03,2024-09-23,6,545.0,0.0
P03,2024-09-23,6,550.0,0.0
P03,2024-09-23,6,555.0,0.0
P03,2024-09-23,6,560.0,0.0
P03,2024-09-23,6,565.0,0.0
P03,2024-09-23,6,570.0,0.0
P03,2024-09-23,6,575.0,0.0
P03,2024-09-23,6,580.0,0.0
P03,2024-09-23,6,585.0,0.0
P03,2024-09-23,6,590.0,0.0
P03,2024-09-23,6,595.0,0.0
P03,2024-09-23,6,600.0,0.0
P03,2024-09-23,6,605.0,0.0
P03,2024-09-23,6,610.0,0.0
P03,2024-09-23,6,615.0,0.0
P03,2024-09-23,6,620.0,0.0
P03,2024-09-23,6,625.0,0.0
P03,2024-09-23,6,630.0,0.0
P03,2024-09-23,6,635.0,0.0
P03,2024-09-23,6,640.0,0.0
P03,2024-09-23,6,645.0,0.0
P03,2024-09-23,6,650.0,0.0
P03,2024-09-23,6,655.0,0.0
P03,2024-09-23,6,660.0,0.0
P03,2024-09-23,6,665.0,0.0
P03,2024-09-23,6,670.0,0.0
P03,2024-09-23,6,675.0,0.0
P03,2024-09-23,6,680.0,0.0
P03,2024-09-23,6,685.0,0.0
P03,2024-09-23,6,690.0,0.0
P03,2024-09-23,6,695.0,0.0
P03,2024-09-23,6,700.0,0.0
P03,2024-09-23,6,705.0,0.0
P03,2024-09-23,6,710.0,0.0
P03,2024-09-23,6,715.0,0.0
P03,2024-09-23,6,720.0,0.0
P03,2024-09-23,6,725.0,0.0
P03,2024-09-23,6,730.0,0.0
P03,2024-09-23,6,735.0,0.0
P03,2024-09-23,6,740.0,0.0
P03,2024-09-23,6,745.0,0.0
P03,2024-09-23,6,750.0,0.0
P03,2024-09-23,6,755.0,0.0
P03,2024-09-23,6,760.0,0.0
P03,2024-09-23,6,765.0,0.0
P03,2024-09-23,6,770.0,0.0
P03,2024-09-23,6,775.0,0.0
P03,2024-09-23,6,780.0,0.0
P03,2024-09-23,6,785.0,0.0
P03,2024-09-23,6,790.0,0.0
P03,2024-09-23,6,795.0,0.0
P03,2024-09-23,6,800.0,0.0
P03,2024-09-23,6,805.0,0.0
P03,2024-09-23,6,810.0,0.0
P03,2024-09-23,6,815.0,0.0
P03,2024-09-23,6,820.0,0.0
P03,2024-09-23,6,825.0,0.0
P03,2024-09-23,6,830.0,0.0
P03,2024-09-23,6,835.0,0.0
P03,2024-09-23,6,840.0,0.0
P03,2024-09-23,6,845.0,0.0
P03,2024-09-23,6,850.0,0.0
P03,2024-09-23,6,855.0,0.0
P03,2024-09-23,6,860.0,0.0
P03,2024-09-23,6,865.0,0.0
P03,2024-09-23,6,870.0,0.0
P03,2024-09-23,6,875.0,0.0
P03,2024-09-23,6,880.0,0.0
P03,2024-09-23,6,885.0,0.0
P03,2024-09-23,6,890.0,0.0
P03,2024-09-23,6,895.0,0.0
P03,2024-09-23,6,900.0,0.0
P03,2024-09-23,6,905.0,0.0
P03,2024-09-23,6,910.0,0.0
P03,2024-09-23,6,915.0,0.0
P03,2024-09-23,6,920.0,0.0
P03,2024-09-23,6,925.0,0.0
P03,2024-09-23,6,930.0,0.0
P03,2024-09-23,6,935.0,0.0
P03,2024-09-23,6,940.0,0.0
P03,2024-09-23,6,945.0,0.0
P03,2024-09-23,6,950.0,0.0
P03,2024-09-23,6,955.0,0.0
P03,2024-09-23,6,960.0,0.0
P03,2024-09-23,6,965.0,0.0
P03,2024-09-23,6,970.0,0.0
P03,2024-09-23,6,975.0,0.0
P03,2024-09-23,6,980.0,0.0
P03,2024-09-23,6,985.0,0.0
P03,2024-09-23,6,990.0,0.0
P03,2024-09-23,6,995.0,0.0
P03,2024-09-23,6,1000.0,0.0
P03,2024-09-23,6,1005.0,0.0
P03,2024-09-23,6,1010.0,0.0
P03,2024-09-23,6,1015.0,0.0
P03,2024-09-23,6,1020.0,0.0
P03,2024-09-23,6,1025.0,0.0
P03,2024-09-23,6,1030.0,0.0
P03,2024-09-23,6,1035.0,0.0
P03,2024-09-23,6,1040.0,0.0
P03,2024-09-23,6,1045.0,0.0
P03,2024-09-23,6,1050.0,0.0
P03,2024-09-23,6,1055.0,0.0
P03,2024-09-23,6,1060.0,0.0
P03,2024-09-23,6,1065.0,0.0
P03,2024-09-23,6,1070.0,0.0
P03,2024-09-23,6,1075.0,0.0
P03,2024-09-23,6,1080.0,0.0
P03,2024-09-23,6,1085.0,0.0
P03,2024-09-23,6,1090.0,0.0
P03,2024-09-23,6,1095.0,0.0
P03,2024-09-23,6,1100.0,0.0
P03,2024-09-23,6,1105.0,0.0
P03,2024-09-23,6,1110.0,0.0
P03,2024-09-23,6,1115.0,0.0
P03,2024-09-23,6,1120.0,0.0
P03,2024-09-23,6,1125.0,0.0
P03,2024-09-23,6,1130.0,0.0
P03,2024-09-23,6,1135.0,0.0
P03,2024-09-23,6,1140.0,0.0
P03,2024-09-23,6,1145.0,0.0
P03,2024-09-23,6,1150.0,0.0
P03,2024-09-23,6,1155.0,0.0
P03,2024-09-23,6,1160.0,0.0
P03,2024-09-23,6,1165.0,0.0
P03,2024-09-23,6,1170.0,0.0
P03,2024-09-23,6,1175.0,0.0
P03,2024-09-23,6,1180.0,0.0
P03,2024-09-23,6,1185.0,0.0
P03,2024-09-23,6,1190.0,0.0
P03,2024-09-23,6,1195.0,0.0
P03,2024-09-23,6,1200.0,0.0
P03,2024-09-23,6,1205.0,0.0
P03,2024-09-23,6,1210.0,0.0
P03,2024-09-23,6,1215.0,0.0
P03,2024-09-23,6,1220.0,0.0
P03,2024-09-23,6,1225.0,0.0
P03,2024-09-23,6,1230.0,0.0
P03,2024-09-23,7,0.0,0.0
P03,2024-09-23,7,5.0,0.0
P03,2024-09-23,7,10.0,0.0
P03,2024-09-23,7,15.0,0.0
P03,2024-09-23,7,20.0,0.0
P03,2024-09-23,7,25.0,0.0
P03,2024-09-23,7,30.0,0.0
P03,2024-09-23,7,35.0,0.0
P03,2024-09-23,7,40.0,0.0
P03,2024-09-23,7,45.0,0.0
P03,2024-09-23,7,50.0,0.0
P03,2024-09-23,7,55.0,0.0
P03,2024-09-23,7,60.0,0.0
P03,2024-09-23,7,65.0,0.0
P03,2024-09-23,7,70.0,0.0
P03,2024-09-23,7,75.0,0.0
P03,2024-09-23,7,80.0,0.0
P03,2024-09-23,7,85.0,0.0
P03,2024-09-23,7,90.0,0.0
P03,2024-09-23,7,95.0,0.0
P03,2024-09-23,7,100.0,0.0
P03,2024-09-23,7,105.0,0.0
P03,2024-09-23,7,110.0,0.0
P03,2024-09-23,7,115.0,0.0
P03,2024-09-23,7,120.0,0.0
P03,2024-09-23,7,125.0,0.0
P03,2024-09-23,7,130.0,0.0
P03,2024-09-23,7,135.0,0.0
P03,2024-09-23,7,140.0,0.0
P03,2024-09-23,7,145.0,0.0
P03,2024-09-23,7,150.0,0.0
P03,2024-09-23,7,155.0,0.0
P03,2024-09-23,7,160.0,0.0
P03,2024-09-23,7,165.0,0.0
P03,2024-09-23,7,170.0,0.0
P03,2024-09-23,7,175.0,0.0
P03,2024-09-23,7,180.0,0.0
P03,2024-09-23,7,185.0,0.0
P03,2024-09-23,7,190.0,0.0
P03,2024-09-23,7,195.0,0.0
P03,2024-09-23,7,200.0,0.0
P03,2024-09-23,7,205.0,0.0
P03,2024-09-23,7,210.0,0.0
P03,2024-09-23,7,215.0,0.0
P03,2024-09-23,7,220.0,0.0
P03,2024-09-23,7,225.0,0.0
P03,2024-09-23,7,230.0,0.0
P03,2024-09-23,7,235.0,0.0
P03,2024-09-23,7,240.0,0.0
P03,2024-09-23,7,245.0,0.0
P03,2024-09-23,7,250.0,0.0
P03,2024-09-23,7,255.0,0.0
P03,2024-09-23,7,260.0,0.0
P03,2024-09-23,7,265.0,0.0
P03,2024-09-23,7,270.0,0.0
P03,2024-09-23,7,275.0,0.0
P03,2024-09-23,7,280.0,0.0
P03,2024-09-23,7,285.0,0.0
P03,2024-09-23,7,290.0,0.0
P03,2024-09-23,7,295.0,0.0
P03,2024-09-23,7,300.0,0.0
P03,2024-09-23,7,305.0,0.0
P03,2024-09-23,7,310.0,0.0
P03,2024-09-23,7,315.0,0.0
P03,2024-09-23,7,320.0,0.0
P03,2024-09-23,7,325.0,0.0
P03,2024-09-23,7,330.0,0.0
P03,2024-09-23,7,335.0,0.0
P03,2024-09-23,7,340.0,0.0
P03,2024-09-23,7,345.0,0.0
P03,2024-09-23,7,350.0,0.0
P03,2024-09-23,7,355.0,0.0
P03,2024-09-23,7,360.0,0.0
P03,2024-09-23,7,365.0,0.0
P03,2024-09-23,7,370.0,0.0
P03,2024-09-23,7,375.0,0.0
P03,2024-09-23,7,380.0,0.0
P03,2024-09-23,7,385.0,0.0
P03,2024-09-23,7,390.0,0.0
P03,2024-09-23,7,395.0,0.0
P03,2024-09-23,7,400.0,0.0
P03,2024-09-23,7,405.0,0.0
P03,2024-09-23,7,410.0,0.0
P03,2024-09-23,7,415.0,0.0
P03,2024-09-23,7,420.0,0.0
P03,2024-09-23,7,425.0,0.0
P03,2024-09-23,7,430.0,0.0
P03,2024-09-23,7,435.0,0.0
P03,2024-09-23,7,440.0,0.0
P03,2024-09-23,7,445.0,0.0
P03,2024-09-23,7,450.0,0.0
P03,2024-09-23,7,455.0,0.0
P03,2024-09-23,7,460.0,0.0
P03,2024-09-23,7,465.0,0.0
P03,2024-09-23,7,470.0,0.0
P03,2024-09-23,7,475.0,0.0
P03,2024-09-23,7,480.0,0.0
P03,2024-09-23,7,485.0,0.0
P03,2024-09-23,7,490.0,0.0
P03,2024-09-23,7,495.0,0.0
P03,2024-09-23,7,500.0,0.0
P03,2024-09-23,7,505.0,0.0
P03,2024-09-23,7,510.0,0.0
P03,2024-09-23,7,515.0,0.0
P03,2024-09-23,7,520.0,0.0
P03,2024-09-23,7,525.0,0.0
P03,2024-09-23,7,530.0,0.0
P03,2024-09-23,7,535.0,0.0
P03,2024-09-23,7,540.0,0.0
P03,2024-09-23,7,545.0,0.0
P03,2024-09-23,7,550.0,0.0
P03,2024-09-23,7,555.0,0.0
P03,2024-09-23,7,560.0,0.0
P03,2024-09-23,7,565.0,0.0
P03,2024-09-23,7,570.0,0.0
P03,2024-09-23,7,575.0,0.0
P03,2024-09-23,7,580.0,0.0
P03,2024-09-23,7,585.0,0.0
P03,2024-09-23,7,590.0,0.0
P03,2024-09-23,7,595.0,0.0
P03,2024-09-23,7,600.0,0.0
P03,2024-09-23,7,605.0,0.0
P03,2024-09-23,7,610.0,0.0
P03,2024-09-23,7,615.0,0.0
P03,2024-09-23,7,620.0,0.0
P03,2024-09-23,7,625.0,0.0
P03,2024-09-23,7,630.0,0.0
P03,2024-09-23,7,635.0,0.0
P03,2024-09-23,7,640.0,0.0
P03,2024-09-23,7,645.0,0.0
P03,2024-09-23,7,650.0,0.0
P03,2024-09-23,7,655.0,0.0
P03,2024-09-23,7,660.0,0.0
P03,2024-09-23,7,665.0,0.0
P03,2024-09-23,7,670.0,0.0
P03,2024-09-23,7,675.0,0.0
P03,2024-09-23,7,680.0,0.0
P03,2024-09-23,7,685.0,0.0
P03,2024-09-23,7,690.0,0.0
P03,2024-09-23,7,695.0,0.0
P03,2024-09-23,7,700.0,0.0
P03,2024-09-23,7,705.0,0.0
P03,2024-09-23,7,710.0,0.0
P03,2024-09-23,7,715.0,0.0
P03,2024-09-23,7,720.0,0.0
P03,2024-09-23,7,725.0,0.0
P03,2024-09-23,7,730.0,0.0
P03,2024-09-23,7,735.0,0.0
P03,2024-09-23,7,740.0,0.0
P03,2024-09-23,7,745.0,0.0
P03,2024-09-23,7,750.0,0.0
P03,2024-09-23,7,755.0,0.0
P03,2024-09-23,7,760.0,0.0
P03,2024-09-23,7,765.0,0.0
P03,2024-09-23,7,770.0,0.0
P03,2024-09-23,7,775.0,0.0
P03,2024-09-23,7,780.0,0.0
P03,2024-09-23,7,785.0,0.0
P03,2024-09-23,7,790.0,0.0
P03,2024-09-23,7,795.0,0.0
P03,2024-09-23,7,800.0,0.0
P03,2024-09-23,7,805.0,0.0
P03,2024-09-23,7,810.0,0.0
P03,2024-09-23,7,815.0,0.0
P03,2024-09-23,7,820.0,0.0
P03,2024-09-23,7,825.0,0.0
P03,2024-09-23,7,830.0,0.0
P03,2024-09-23,7,835.0,0.0
P03,2024-09-23,7,840.0,0.0
P03,2024-09-23,7,845.0,0.0
P03,2024-09-23,7,850.0,0.0
P03,2024-09-23,7,855.0,0.0
P03,2024-09-23,7,860.0,0.0
P03,2024-09-23,7,865.0,0.0
P03,2024-09-23,7,870.0,0.0
P03,2024-09-23,7,875.0,0.0
P03,2024-09-23,7,880.0,0.0
P03,2024-09-23,7,885.0,0.0
P03,2024-09-23,7,890.0,0.0
P03,2024-09-23,7,895.0,0.0
P03,2024-09-23,7,900.0,0.0
P03,2024-09-23,7,905.0,0.0
P03,2024-09-23,7,910.0,0.0
P03,2024-09-23,7,915.0,0.0
P03,2024-09-23,7,920.0,0.0
P03,2024-09-23,7,925.0,0.0
P03,2024-09-23,7,930.0,0.0
P03,2024-09-23,7,935.0,0.0
P03,2024-09-23,7,940.0,0.0
P03,2024-09-23,7,945.0,0.0
P03,2024-09-23,7,950.0,0.0
P03,2024-09-23,7,955.0,0.0
P03,2024-09-23,7,960.0,0.0
P03,2024-09-23,7,965.0,0.0
P03,2024-09-23,7,970.0,0.0
P03,2024-09-23,7,975.0,0.0
P03,2024-09-23,7,980.0,0.0
P03,2024-09-23,7,985.0,0.0
P03,2024-09-23,7,990.0,0.0
P03,2024-09-23,7,995.0,0.0
P03,2024-09-23,7,1000.0,0.0
P03,2024-09-23,7,1005.0,0.0
P03,2024-09-23,7,1010.0,0.0
P03,2024-09-23,7,1015.0,0.0
P03,2024-09-23,7,1020.0,0.0
P03,2024-09-23,7,1025.0,0.0
P03,2024-09-23,7,1030.0,0.0
P03,2024-09-23,7,1035.0,0.0
P03,2024-09-23,7,1040.0,0.0
P03,2024-09-23,7,1045.0,0.0
P03,2024-09-23,7,1050.0,0.0
P03,2024-09-23,7,1055.0,0.0
P03,2024-09-23,7,1060.0,0.0
P03,2024-09-23,7,1065.0,0.0
P03,2024-09-23,7,1070.0,0.0
P03,2024-09-23,7,1075.0,0.0
P03,2024-09-23,7,1080.0,0.0
P03,2024-09-23,7,1085.0,0.0
P03,2024-09-23,7,1090.0,0.0
P03,2024-09-23,7,1095.0,0.0
P03,2024-09-23,7,1100.0,0.0
P03,2024-09-23,7,1105.0,0.0
P03,2024-09-23,7,1110.0,0.0
P03,2024-09-23,7,1115.0,0.0
P03,2024-09-23,7,1120.0,0.0
P03,2024-09-23,7,1125.0,0.0
P03,2024-09-23,7,1130.0,0.0
P03,2024-09-23,7,1135.0,0.0
P03,2024-09-23,7,1140.0,0.0
P03,2024-09-23,7,1145.0,0.0
P03,2024-09-23,7,1150.0,0.0
P03,2024-09-23,7,1155.0,0.0
P03,2024-09-23,7,1160.0,0.0
P03,2024-09-23,7,1165.0,0.0
P03,2024-09-23,7,1170.0,0.0
P03,2024-09-23,7,1175.0,0.0
P03,2024-09-23,7,1180.0,0.0
P03,2024-09-23,7,1185.0,0.0
P03,2024-09-23,7,1190.0,0.0
P03,2024-09-23,7,1195.0,0.0
P03,2024-09-23,7,1200.0,0.0
P03,2024-09-23,7,1205.0,0.0
P03,2024-09-23,7,1210.0,0.0
P03,2024-09-23,7,1215.0,0.0
P03,2024-09-23,7,1220.0,0.0
P03,2024-09-23,7,1225.0,0.0
P03,2024-09-23,7,1230.0,0.0
P03,2024-09-23,8,0.0,1.0
P03,2024-09-23,8,5.0,1.0
P03,2024-09-23,8,10.0,1.0
P03,2024-09-23,8,15.0,1.0
P03,2024-09-23,8,20.0,1.0
P03,2024-09-23,8,25.0,1.0
P03,2024-09-23,8,30.0,1.0
P03,2024-09-23,8,35.0,1.0
P03,2024-09-23,8,40.0,1.0
P03,2024-09-23,8,45.0,1.0
P03,2024-09-23,8,50.0,1.0
P03,2024-09-23,8,55.0,1.0
P03,2024-09-23,8,60.0,1.0
P03,2024-09-23,8,65.0,1.0
P03,2024-09-23,8,70.0,1.0
P03,2024-09-23,8,75.0,1.0
P03,2024-09-23,8,80.0,1.0
P03,2024-09-23,8,85.0,1.0
P03,2024-09-23,8,90.0,1.0
P03,2024-09-23,8,95.0,1.0
P03,2024-09-23,8,100.0,1.0
P03,2024-09-23,8,105.0,1.0
P03,2024-09-23,8,110.0,1.0
P03,2024-09-23,8,115.0,1.0
P03,2024-09-23,8,120.0,1.0
P03,2024-09-23,8,125.0,1.0
P03,2024-09-23,8,130.0,1.0
P03,2024-09-23,8,135.0,1.0
P03,2024-09-23,8,140.0,1.0
P03,2024-09-23,8,145.0,1.0
P03,2024-09-23,8,150.0,1.0
P03,2024-09-23,8,155.0,1.0
P03,2024-09-23,8,160.0,1.0
P03,2024-09-23,8,165.0,1.0
P03,2024-09-23,8,170.0,1.0
P03,2024-09-23,8,175.0,1.0
P03,2024-09-23,8,180.0,1.0
P03,2024-09-23,8,185.0,1.0
P03,2024-09-23,8,190.0,1.0
P03,2024-09-23,8,195.0,1.0
P03,2024-09-23,8,200.0,1.0
P03,2024-09-23,8,205.0,1.0
P03,2024-09-23,8,210.0,1.0
P03,2024-09-23,8,215.0,1.0
P03,2024-09-23,8,220.0,1.0
P03,2024-09-23,8,225.0,1.0
P03,2024-09-23,8,230.0,1.0
P03,2024-09-23,8,235.0,1.0
P03,2024-09-23,8,240.0,1.0
P03,2024-09-23,8,245.0,1.0
P03,2024-09-23,8,250.0,1.0
P03,2024-09-23,8,255.0,1.0
P03,2024-09-23,8,260.0,1.0
P03,2024-09-23,8,265.0,1.0
P03,2024-09-23,8,270.0,1.0
P03,2024-09-23,8,275.0,1.0
P03,2024-09-23,8,280.0,1.0
P03,2024-09-23,8,285.0,1.0
P03,2024-09-23,8,290.0,1.0
P03,2024-09-23,8,295.0,1.0
P03,2024-09-23,8,300.0,1.0
P03,2024-09-23,8,305.0,1.0
P03,2024-09-23,8,310.0,1.0
P03,2024-09-23,8,315.0,1.0
P03,2024-09-23,8,320.0,1.0
P03,2024-09-23,8,325.0,1.0
P03,2024-09-23,8,330.0,1.0
P03,2024-09-23,8,335.0,1.0
P03,2024-09-23,8,340.0,1.0
P03,2024-09-23,8,345.0,1.0
P03,2024-09-23,8,350.0,1.0
P03,2024-09-23,8,355.0,1.0
P03,2024-09-23,8,360.0,1.0
P03,2024-09-23,8,365.0,1.0
P03,2024-09-23,8,370.0,1.0
P03,2024-09-23,8,375.0,1.0
P03,2024-09-23,8,380.0,1.0
P03,2024-09-23,8,385.0,1.0
P03,2024-09-23,8,390.0,1.0
P03,2024-09-23,8,395.0,1.0
P03,2024-09-23,8,400.0,1.0
P03,2024-09-23,8,405.0,1.0
P03,2024-09-23,8,410.0,1.0
P03,2024-09-23,8,415.0,1.0
P03,2024-09-23,8,420.0,1.0
P03,2024-09-23,8,425.0,1.0
P03,2024-09-23,8,430.0,1.0
P03,2024-09-23,8,435.0,1.0
P03,2024-09-23,8,440.0,1.0
P03,2024-09-23,8,445.0,1.0
P03,2024-09-23,8,450.0,1.0
P03,2024-09-23,8,455.0,1.0
P03,2024-09-23,8,460.0,1.0
P03,2024-09-23,8,465.0,1.0
P03,2024-09-23,8,470.0,1.0
P03,2024-09-23,8,475.0,1.0
P03,2024-09-23,8,480.0,1.0
P03,2024-09-23,8,485.0,1.0
P03,2024-09-23,8,490.0,1.0
P03,2024-09-23,8,495.0,1.0
P03,2024-09-23,8,500.0,1.0
P03,2024-09-23,8,505.0,1.0
P03,2024-09-23,8,510.0,1.0
P03,2024-09-23,8,515.0,1.0
P03,2024-09-23,8,520.0,1.0
P03,2024-09-23,8,525.0,1.0
P03,2024-09-23,8,530.0,1.0
P03,2024-09-23,8,535.0,1.0
P03,2024-09-23,8,540.0,1.0
P03,2024-09-23,8,545.0,1.0
P03,2024-09-23,8,550.0,1.0
P03,2024-09-23,8,555.0,1.0
P03,2024-09-23,8,560.0,1.0
P03,2024-09-23,8,565.0,1.0
P03,2024-09-23,8,570.0,1.0
P03,2024-09-23,8,575.0,1.0
P03,2024-09-23,8,580.0,1.0
P03,2024-09-23,8,585.0,1.0
P03,2024-09-23,8,590.0,1.0
P03,2024-09-23,8,595.0,1.0
P03,2024-09-23,8,600.0,1.0
P03,2024-09-23,8,605.0,1.0
P03,2024-09-23,8,610.0,1.0
P03,2024-09-23,8,615.0,1.0
P03,2024-09-23,8,620.0,1.0
P03,2024-09-23,8,625.0,1.0
P03,2024-09-23,8,630.0,1.0
P03,2024-09-23,8,635.0,1.0
P03,2024-09-23,8,640.0,1.0
P03,2024-09-23,8,645.0,1.0
P03,2024-09-23,8,650.0,1.0
P03,2024-09-23,8,655.0,1.0
P03,2024-09-23,8,660.0,1.0
P03,2024-09-23,8,665.0,1.0
P03,2024-09-23,8,670.0,1.0
P03,2024-09-23,8,675.0,1.0
P03,2024-09-23,8,680.0,1.0
P03,2024-09-23,8,685.0,1.0
P03,2024-09-23,8,690.0,1.0
P03,2024-09-23,8,695.0,1.0
P03,2024-09-23,8,700.0,1.0
P03,2024-09-23,8,705.0,1.0
P03,2024-09-23,8,710.0,1.0
P03,2024-09-23,8,715.0,1.0
P03,2024-09-23,8,720.0,1.0
P03,2024-09-23,8,725.0,1.0
P03,2024-09-23,8,730.0,1.0
P03,2024-09-23,8,735.0,1.0
P03,2024-09-23,8,740.0,1.0
P03,2024-09-23,8,745.0,1.0
P03,2024-09-23,8,750.0,1.0
P03,2024-09-23,8,755.0,1.0
P03,2024-09-23,8,760.0,1.0
P03,2024-09-23,8,765.0,1.0
P03,2024-09-23,8,770.0,1.0
P03,2024-09-23,8,775.0,1.0
P03,2024-09-23,8,780.0,1.0
P03,2024-09-23,8,785.0,1.0
P03,2024-09-23,8,790.0,1.0
P03,2024-09-23,8,795.0,1.0
P03,2024-09-23,8,800.0,1.0
P03,2024-09-23,8,805.0,1.0
P03,2024-09-23,8,810.0,1.0
P03,2024-09-23,8,815.0,1.0
P03,2024-09-23,8,820.0,1.0
P03,2024-09-23,8,825.0,0.72
P03,2024-09-23,8,830.0,1.0
P03,2024-09-23,8,835.0,1.0
P03,2024-09-23,8,840.0,1.0
P03,2024-09-23,8,845.0,1.0
P03,2024-09-23,8,850.0,1.0
P03,2024-09-23,8,855.0,1.0
P03,2024-09-23,8,860.0,1.0
P03,2024-09-23,8,865.0,1.0
P03,2024-09-23,8,870.0,1.0
P03,2024-09-23,8,875.0,1.0
P03,2024-09-23,8,880.0,1.0
P03,2024-09-23,8,885.0,1.0
P03,2024-09-23,8,890.0,1.0
P03,2024-09-23,8,895.0,1.0
P03,2024-09-23,8,900.0,1.0
P03,2024-09-23,8,905.0,1.0
P03,2024-09-23,8,910.0,1.0
P03,2024-09-23,8,915.0,1.0
P03,2024-09-23,8,920.0,1.0
P03,2024-09-23,8,925.0,1.0
P03,2024-09-23,8,930.0,1.0
P03,2024-09-23,8,935.0,1.0
P03,2024-09-23,8,940.0,1.0
P03,2024-09-23,8,945.0,1.0
P03,2024-09-23,8,950.0,1.0
P03,2024-09-23,8,955.0,1.0
P03,2024-09-23,8,960.0,1.0
P03,2024-09-23,8,965.0,1.0
P03,2024-09-23,8,970.0,1.0
P03,2024-09-23,8,975.0,1.0
P03,2024-09-23,8,980.0,0.85
P03,2024-09-23,8,985.0,1.0
P03,2024-09-23,8,990.0,1.0
P03,2024-09-23,8,995.0,1.0
P03,2024-09-23,8,1000.0,1.0
P03,2024-09-23,8,1005.0,1.0
P03,2024-09-23,8,1010.0,1.0
P03,2024-09-23,8,1015.0,1.0
P03,2024-09-23,8,1020.0,1.0
P03,2024-09-23,8,1025.0,1.0
P03,2024-09-23,8,1030.0,1.0
P03,2024-09-23,8,1035.0,1.0
P03,2024-09-23,8,1040.0,1.0
P03,2024-09-23,8,1045.0,1.0
P03,2024-09-23,8,1050.0,1.0
P03,2024-09-23,8,1055.0,1.0
P03,2024-09-23,8,1060.0,1.0
P03,2024-09-23,8,1065.0,1.0
P03,2024-09-23,8,1070.0,1.0
P03,2024-09-23,8,1075.0,1.0
P03,2024-09-23,8,1080.0,1.0
P03,2024-09-23,8,1085.0,1.0
P03,2024-09-23,8,1090.0,1.0
P03,2024-09-23,8,1095.0,1.0
P03,2024-09-23,8,1100.0,0.84
P03,2024-09-23,8,1105.0,1.0
P03,2024-09-23,8,1110.0,1.0
P03,2024-09-23,8,1115.0,1.0
P03,2024-09-23,8,1120.0,1.0
P03,2024-09-23,8,1125.0,1.0
P03,2024-09-23,8,1130.0,1.0
P03,2024-09-23,8,1135.0,1.0
P03,2024-09-23,8,1140.0,1.0
P03,2024-09-23,8,1145.0,1.0
P03,2024-09-23,8,1150.0,1.0
P03,2024-09-23,8,1155.0,1.0
P03,2024-09-23,8,1160.0,1.0
P03,2024-09-23,8,1165.0,1.0
P03,2024-09-23,8,1170.0,1.0
P03,2024-09-23,8,1175.0,1.0
P03,2024-09-23,8,1180.0,1.0
P03,2024-09-23,8,1185.0,1.0
P03,2024-09-23,8,1190.0,1.0
P03,2024-09-23,8,1195.0,1.0
P03,2024-09-23,8,1200.0,1.0
P03,2024-09-23,8,1205.0,1.0
P03,2024-09-23,8,1210.0,1.0
P03,2024-09-23,8,1215.0,1.0
P03,2024-09-23,8,1220.0,1.0
P03,2024-09-23,8,1225.0,1.0
P03,2024-09-23,8,1230.0,1.0
P03,2024-09-23,9,0.0,1.0
P03,2024-09-23,9,5.0,1.0
P03,2024-09-23,9,10.0,1.0
P03,2024-09-23,9,15.0,1.0
P03,2024-09-23,9,20.0,1.0
P03,2024-09-23,9,25.0,1.0
P03,2024-09-23,9,30.0,1.0
P03,2024-09-23,9,35.0,1.0
P03,2024-09-23,9,40.0,1.0
P03,2024-09-23,9,45.0,1.0
P03,2024-09-23,9,50.0,1.0
P03,2024-09-23,9,55.0,1.0
P03,2024-09-23,9,60.0,1.0
P03,2024-09-23,9,65.0,1.0
P03,2024-09-23,9,70.0,1.0
P03,2024-09-23,9,75.0,1.0
P03,2024-09-23,9,80.0,1.0
P03,2024-09-23,9,85.0,1.0
P03,2024-09-23,9,90.0,1.0
P03,2024-09-23,9,95.0,1.0
P03,2024-09-23,9,100.0,1.0
P03,2024-09-23,9,105.0,1.0
P03,2024-09-23,9,110.0,1.0
P03,2024-09-23,9,115.0,1.0
P03,2024-09-23,9,120.0,1.0
P03,2024-09-23,9,125.0,1.0
P03,2024-09-23,9,130.0,1.0
P03,2024-09-23,9,135.0,1.0
P03,2024-09-23,9,140.0,1.0
P03,2024-09-23,9,145.0,1.0
P03,2024-09-23,9,150.0,1.0
P03,2024-09-23,9,155.0,1.0
P03,2024-09-23,9,160.0,1.0
P03,2024-09-23,9,165.0,1.0
P03,2024-09-23,9,170.0,1.0
P03,2024-09-23,9,175.0,1.0
P03,2024-09-23,9,180.0,1.0
P03,2024-09-23,9,185.0,1.0
P03,2024-09-23,9,190.0,1.0
P03,2024-09-23,9,195.0,1.0
P03,2024-09-23,9,200.0,1.0
P03,2024-09-23,9,205.0,1.0
P03,2024-09-23,9,210.0,1.0
P03,2024-09-23,9,215.0,1.0
P03,2024-09-23,9,220.0,1.0
P03,2024-09-23,9,225.0,1.0
P03,2024-09-23,9,230.0,1.0
P03,2024-09-23,9,235.0,1.0
P03,2024-09-23,9,240.0,1.0
P03,2024-09-23,9,245.0,1.0
P03,2024-09-23,9,250.0,1.0
P03,2024-09-23,9,255.0,1.0
P03,2024-09-23,9,260.0,1.0
P03,2024-09-23,9,265.0,1.0
P03,2024-09-23,9,270.0,1.0
P03,2024-09-23,9,275.0,1.0
P03,2024-09-23,9,280.0,1.0
P03,2024-09-23,9,285.0,1.0
P03,2024-09-23,9,290.0,1.0
P03,2024-09-23,9,295.0,1.0
P03,2024-09-23,9,300.0,1.0
P03,2024-09-23,9,305.0,1.0
P03,2024-09-23,9,310.0,1.0
P03,2024-09-23,9,315.0,1.0
P03,2024-09-23,9,320.0,1.0
P03,2024-09-23,9,325.0,1.0
P03,2024-09-23,9,330.0,1.0
P03,2024-09-23,9,335.0,1.0
P03,2024-09-23,9,340.0,1.0
P03,2024-09-23,9,345.0,1.0
P03,2024-09-23,9,350.0,1.0
P03,2024-09-23,9,355.0,1.0
P03,2024-09-23,9,360.0,1.0
P03,2024-09-23,9,365.0,1.0
P03,2024-09-23,9,370.0,1.0
P03,2024-09-23,9,375.0,1.0
P03,2024-09-23,9,380.0,1.0
P03,2024-09-23,9,385.0,1.0
P03,2024-09-23,9,390.0,1.0
P03,2024-09-23,9,395.0,1.0
P03,2024-09-23,9,400.0,1.0
P03,2024-09-23,9,405.0,1.0
P03,2024-09-23,9,410.0,1.0
P03,2024-09-23,9,415.0,1.0
P03,2024-09-23,9,420.0,1.0
P03,2024-09-23,9,425.0,1.0
P03,2024-09-23,9,430.0,1.0
P03,2024-09-23,9,435.0,1.0
P03,2024-09-23,9,440.0,1.0
P03,2024-09-23,9,445.0,1.0
P03,2024-09-23,9,450.0,1.0
P03,2024-09-23,9,455.0,1.0
P03,2024-09-23,9,460.0,1.0
P03,2024-09-23,9,465.0,1.0
P03,2024-09-23,9,470.0,1.0
P03,2024-09-23,9,475.0,1.0
P03,2024-09-23,9,480.0,1.0
P03,2024-09-23,9,485.0,1.0
P03,2024-09-23,9,490.0,1.0
P03,2024-09-23,9,495.0,1.0
P03,2024-09-23,9,500.0,1.0
P03,2024-09-23,9,505.0,1.0
P03,2024-09-23,9,510.0,1.0
P03,2024-09-23,9,515.0,1.0
P03,2024-09-23,9,520.0,1.0
P03,2024-09-23,9,525.0,1.0
P03,2024-09-23,9,530.0,1.0
P03,2024-09-23,9,535.0,1.0
P03,2024-09-23,9,540.0,1.0
P03,2024-09-23,9,545.0,1.0
P03,2024-09-23,9,550.0,1.0
P03,2024-09-23,9,555.0,1.0
P03,2024-09-23,9,560.0,1.0
P03,2024-09-23,9,565.0,1.0
P03,2024-09-23,9,570.0,1.0
P03,2024-09-23,9,575.0,1.0
P03,2024-09-23,9,580.0,1.0
P03,2024-09-23,9,585.0,1.0
P03,2024-09-23,9,590.0,1.0
P03,2024-09-23,9,595.0,1.0
P03,2024-09-23,9,600.0,1.0
P03,2024-09-23,9,605.0,1.0
P03,2024-09-23,9,610.0,1.0
P03,2024-09-23,9,615.0,1.0
P03,2024-09-23,9,620.0,1.0
P03,2024-09-23,9,625.0,1.0
P03,2024-09-23,9,630.0,1.0
P03,2024-09-23,9,635.0,1.0
P03,2024-09-23,9,640.0,1.0
P03,2024-09-23,9,645.0,1.0
P03,2024-09-23,9,650.0,1.0
P03,2024-09-23,9,655.0,1.0
P03,2024-09-23,9,660.0,1.0
P03,2024-09-23,9,665.0,1.0
P03,2024-09-23,9,670.0,1.0
P03,2024-09-23,9,675.0,1.0
P03,2024-09-23,9,680.0,1.0
P03,2024-09-23,9,685.0,1.0
P03,2024-09-23,9,690.0,1.0
P03,2024-09-23,9,695.0,1.0
P03,2024-09-23,9,700.0,1.0
P03,2024-09-23,9,705.0,1.0
P03,2024-09-23,9,710.0,1.0
P03,2024-09-23,9,715.0,1.0
P03,2024-09-23,9,720.0,1.0
P03,2024-09-23,9,725.0,1.0
P03,2024-09-23,9,730.0,1.0
P03,2024-09-23,9,735.0,1.0
P03,2024-09-23,9,740.0,1.0
P03,2024-09-23,9,745.0,1.0
P03,2024-09-23,9,750.0,1.0
P03,2024-09-23,9,755.0,1.0
P03,2024-09-23,9,760.0,1.0
P03,2024-09-23,9,765.0,1.0
P03,2024-09-23,9,770.0,1.0
P03,2024-09-23,9,775.0,1.0
P03,2024-09-23,9,780.0,1.0
P03,2024-09-23,9,785.0,1.0
P03,2024-09-23,9,790.0,1.0
P03,2024-09-23,9,795.0,1.0
P03,2024-09-23,9,800.0,1.0
P03,2024-09-23,9,805.0,1.0
P03,2024-09-23,9,810.0,1.0
P03,2024-09-23,9,815.0,1.0
P03,2024-09-23,9,820.0,1.0
P03,2024-09-23,9,825.0,1.0
P03,2024-09-23,9,830.0,1.0
P03,2024-09-23,9,835.0,1.0
P03,2024-09-23,9,840.0,1.0
P03,2024-09-23,9,845.0,1.0
P03,2024-09-23,9,850.0,1.0
P03,2024-09-23,9,855.0,1.0
P03,2024-09-23,9,860.0,1.0
P03,2024-09-23,9,865.0,1.0
P03,2024-09-23,9,870.0,1.0
P03,2024-09-23,9,875.0,1.0
P03,2024-09-23,9,880.0,1.0
P03,2024-09-23,9,885.0,1.0
P03,2024-09-23,9,890.0,1.0
P03,2024-09-23,9,895.0,1.0
P03,2024-09-23,9,900.0,1.0
P03,2024-09-23,9,905.0,1.0
P03,2024-09-23,9,910.0,1.0
P03,2024-09-23,9,915.0,1.0
P03,2024-09-23,9,920.0,1.0
P03,2024-09-23,9,925.0,1.0
P03,2024-09-23,9,930.0,1.0
P03,2024-09-23,9,935.0,1.0
P03,2024-09-23,9,940.0,1.0
P03,2024-09-23,9,945.0,1.0
P03,2024-09-23,9,950.0,1.0
P03,2024-09-23,9,955.0,1.0
P03,2024-09-23,9,960.0,1.0
P03,2024-09-23,9,965.0,1.0
P03,2024-09-23,9,970.0,1.0
P03,2024-09-23,9,975.0,1.0
P03,2024-09-23,9,980.0,1.0
P03,2024-09-23,9,985.0,1.0
P03,2024-09-23,9,990.0,1.0
P03,2024-09-23,9,995.0,1.0
P03,2024-09-23,9,1000.0,1.0
P03,2024-09-23,9,1005.0,1.0
P03,2024-09-23,9,1010.0,1.0
P03,2024-09-23,9,1015.0,1.0
P03,2024-09-23,9,1020.0,1.0
P03,2024-09-23,9,1025.0,1.0
P03,2024-09-23,9,1030.0,1.0
P03,2024-09-23,9,1035.0,1.0
P03,2024-09-23,9,1040.0,1.0
P03,2024-09-23,9,1045.0,1.0
P03,2024-09-23,9,1050.0,1.0
P03,2024-09-23,9,1055.0,1.0
P03,2024-09-23,9,1060.0,1.0
P03,2024-09-23,9,1065.0,1.0
P03,2024-09-23,9,1070.0,1.0
P03,2024-09-23,9,1075.0,1.0
P03,2024-09-23,9,1080.0,1.0
P03,2024-09-23,9,1085.0,1.0
P03,2024-09-23,9,1090.0,1.0
P03,2024-09-23,9,1095.0,1.0
P03,2024-09-23,9,1100.0,1.0
P03,2024-09-23,9,1105.0,1.0
P03,2024-09-23,9,1110.0,1.0
P03,2024-09-23,9,1115.0,1.0
P03,2024-09-23,9,1120.0,1.0
P03,2024-09-23,9,1125.0,1.0
P03,2024-09-23,9,1130.0,1.0
P03,2024-09-23,9,1135.0,1.0
P03,2024-09-23,9,1140.0,1.0
P03,2024-09-23,9,1145.0,1.0
P03,2024-09-23,9,1150.0,1.0
P03,2024-09-23,9,1155.0,1.0
P03,2024-09-23,9,1160.0,1.0
P03,2024-09-23,9,1165.0,1.0
P03,2024-09-23,9,1170.0,1.0
P03,2024-09-23,9,1175.0,1.0
P03,2024-09-23,9,1180.0,1.0
P03,2024-09-23,9,1185.0,1.0
P03,2024-09-23,9,1190.0,1.0
P03,2024-09-23,9,1195.0,1.0
P03,2024-09-23,9,1200.0,1.0
P03,2024-09-23,9,1205.0,1.0
P03,2024-09-23,9,1210.0,1.0
P03,2024-09-23,9,1215.0,1.0
P03,2024-09-23,9,1220.0,1.0
P03,2024-09-23,9,1225.0,1.0
P03,2024-09-23,9,1230.0,1.0
P03,2024-09-23,10,0.0,0.0
P03,2024-09-23,10,5.0,0.0
P03,2024-09-23,10,10.0,0.0
P03,2024-09-23,10,15.0,0.0
P03,2024-09-23,10,20.0,0.0
P03,2024-09-23,10,25.0,0.0
P03,2024-09-23,10,30.0,0.0
P03,2024-09-23,10,35.0,0.0
P03,2024-09-23,10,40.0,0.0
P03,2024-09-23,10,45.0,0.0
P03,2024-09-23,10,50.0,0.0
P03,2024-09-23,10,55.0,0.0
P03,2024-09-23,10,60.0,0.0
P03,2024-09-23,10,65.0,0.0
P03,2024-09-23,10,70.0,0.0
P03,2024-09-23,10,75.0,0.0
P03,2024-09-23,10,80.0,0.0
P03,2024-09-23,10,85.0,0.0
P03,2024-09-23,10,90.0,0.0
P03,2024-09-23,10,95.0,0.0
P03,2024-09-23,10,100.0,0.0
P03,2024-09-23,10,105.0,0.0
P03,2024-09-23,10,110.0,0.0
P03,2024-09-23,10,115.0,0.0
P03,2024-09-23,10,120.0,0.0
P03,2024-09-23,10,125.0,0.0
P03,2024-09-23,10,130.0,0.0
P03,2024-09-23,10,135.0,0.0
P03,2024-09-23,10,140.0,0.0
P03,2024-09-23,10,145.0,0.0
P03,2024-09-23,10,150.0,0.0
P03,2024-09-23,10,155.0,0.0
P03,2024-09-23,10,160.0,0.0
P03,2024-09-23,10,165.0,0.0
P03,2024-09-23,10,170.0,0.0
P03,2024-09-23,10,175.0,0.0
P03,2024-09-23,10,180.0,0.0
P03,2024-09-23,10,185.0,0.0
P03,2024-09-23,10,190.0,0.0
P03,2024-09-23,10,195.0,0.0
P03,2024-09-23,10,200.0,0.0
P03,2024-09-23,10,205.0,0.0
P03,2024-09-23,10,210.0,0.0
P03,2024-09-23,10,215.0,0.0
P03,2024-09-23,10,220.0,0.0
P03,2024-09-23,10,225.0,0.0
P03,2024-09-23,10,230.0,0.0
P03,2024-09-23,10,235.0,0.0
P03,2024-09-23,10,240.0,0.0
P03,2024-09-23,10,245.0,0.0
P03,2024-09-23,10,250.0,0.0
P03,2024-09-23,10,255.0,0.0
P03,2024-09-23,10,260.0,0.0
P03,2024-09-23,10,265.0,0.0
P03,2024-09-23,10,270.0,0.0
P03,2024-09-23,10,275.0,0.0
P03,2024-09-23,10,280.0,0.0
P03,2024-09-23,10,285.0,0.0
P03,2024-09-23,10,290.0,0.0
P03,2024-09-23,10,295.0,0.0
P03,2024-09-23,10,300.0,0.0
P03,2024-09-23,10,305.0,0.0
P03,2024-09-23,10,310.0,0.0
P03,2024-09-23,10,315.0,0.0
P03,2024-09-23,10,320.0,0.0
P03,2024-09-23,10,325.0,0.0
P03,2024-09-23,10,330.0,0.0
P03,2024-09-23,10,335.0,0.0
P03,2024-09-23,10,340.0,0.0
P03,2024-09-23,10,345.0,0.0
P03,2024-09-23,10,350.0,0.0
P03,2024-09-23,10,355.0,0.0
P03,2024-09-23,10,360.0,0.0
P03,2024-09-23,10,365.0,0.0
P03,2024-09-23,10,370.0,0.0
P03,2024-09-23,10,375.0,0.0
P03,2024-09-23,10,380.0,0.0
P03,2024-09-23,10,385.0,0.0
P03,2024-09-23,10,390.0,0.0
P03,2024-09-23,10,395.0,0.0
P03,2024-09-23,10,400.0,0.0
P03,2024-09-23,10,405.0,0.0
P03,2024-09-23,10,410.0,0.0
P03,2024-09-23,10,415.0,0.0
P03,2024-09-23,10,420.0,0.0
P03,2024-09-23,10,425.0,0.0
P03,2024-09-23,10,430.0,0.0
P03,2024-09-23,10,435.0,0.0
P03,2024-09-23,10,440.0,0.0
P03,2024-09-23,10,445.0,0.0
P03,2024-09-23,10,450.0,0.0
P03,2024-09-23,10,455.0,0.0
P03,2024-09-23,10,460.0,0.0
P03,2024-09-23,10,465.0,0.0
P03,2024-09-23,10,470.0,0.0
P03,2024-09-23,10,475.0,0.0
P03,2024-09-23,10,480.0,0.0
P03,2024-09-23,10,485.0,0.0
P03,2024-09-23,10,490.0,0.0
P03,2024-09-23,10,495.0,0.0
P03,2024-09-23,10,500.0,0.0
P03,2024-09-23,10,505.0,0.0
P03,2024-09-23,10,510.0,0.0
P03,2024-09-23,10,515.0,0.0
P03,2024-09-23,10,520.0,0.0
P03,2024-09-23,10,525.0,0.0
P03,2024-09-23,10,530.0,0.0
P03,2024-09-23,10,535.0,0.0
P03,2024-09-23,10,540.0,0.0
P03,2024-09-23,10,545.0,0.0
P03,2024-09-23,10,550.0,0.0
P03,2024-09-23,10,555.0,0.0
P03,2024-09-23,10,560.0,0.0
P03,2024-09-23,10,565.0,0.0
P03,2024-09-23,10,570.0,0.0
P03,2024-09-23,10,575.0,0.0
P03,2024-09-23,10,580.0,0.0
P03,2024-09-23,10,585.0,0.0
P03,2024-09-23,10,590.0,0.0
P03,2024-09-23,10,595.0,0.0
P03,2024-09-23,10,600.0,0.0
P03,2024-09-23,10,605.0,0.0
P03,2024-09-23,10,610.0,0.0
P03,2024-09-23,10,615.0,0.0
P03,2024-09-23,10,620.0,0.0
P03,2024-09-23,10,625.0,0.0
P03,2024-09-23,10,630.0,0.0
P03,2024-09-23,10,635.0,0.0
P03,2024-09-23,10,640.0,0.0
P03,2024-09-23,10,645.0,0.0
P03,2024-09-23,10,650.0,0.0
P03,2024-09-23,10,655.0,0.0
P03,2024-09-23,10,660.0,0.0
P03,2024-09-23,10,665.0,0.0
P03,2024-09-23,10,670.0,0.0
P03,2024-09-23,10,675.0,0.0
P03,2024-09-23,10,680.0,0.0
P03,2024-09-23,10,685.0,0.0
P03,2024-09-23,10,690.0,0.0
P03,2024-09-23,10,695.0,0.0
P03,2024-09-23,10,700.0,0.0
P03,2024-09-23,10,705.0,0.0
P03,2024-09-23,10,710.0,0.0
P03,2024-09-23,10,715.0,0.0
P03,2024-09-23,10,720.0,0.0
P03,2024-09-23,10,725.0,0.0
P03,2024-09-23,10,730.0,0.0
P03,2024-09-23,10,735.0,0.0
P03,2024-09-23,10,740.0,0.0
P03,2024-09-23,10,745.0,0.0
P03,2024-09-23,10,750.0,0.0
P03,2024-09-23,10,755.0,0.0
P03,2024-09-23,10,760.0,0.0
P03,2024-09-23,10,765.0,0.0
P03,2024-09-23,10,770.0,0.0
P03,2024-09-23,10,775.0,0.0
P03,2024-09-23,10,780.0,0.0
P03,2024-09-23,10,785.0,0.0
P03,2024-09-23,10,790.0,0.0
P03,2024-09-23,10,795.0,0.0
P03,2024-09-23,10,800.0,0.0
P03,2024-09-23,10,805.0,0.0
P03,2024-09-23,10,810.0,0.0
P03,2024-09-23,10,815.0,0.0
P03,2024-09-23,10,820.0,0.0
P03,2024-09-23,10,825.0,0.0
P03,2024-09-23,10,830.0,0.0
P03,2024-09-23,10,835.0,0.0
P03,2024-09-23,10,840.0,0.0
P03,2024-09-23,10,845.0,0.0
P03,2024-09-23,10,850.0,0.0
P03,2024-09-23,10,855.0,0.0
P03,2024-09-23,10,860.0,0.0
P03,2024-09-23,10,865.0,0.0
P03,2024-09-23,10,870.0,0.0
P03,2024-09-23,10,875.0,0.0
P03,2024-09-23,10,880.0,0.0
P03,2024-09-23,10,885.0,0.0
P03,2024-09-23,10,890.0,0.0
P03,2024-09-23,10,895.0,0.0
P03,2024-09-23,10,900.0,0.0
P03,2024-09-23,10,905.0,0.0
P03,2024-09-23,10,910.0,0.0
P03,2024-09-23,10,915.0,0.0
P03,2024-09-23,10,920.0,0.0
P03,2024-09-23,10,925.0,0.0
P03,2024-09-23,10,930.0,0.0
P03,2024-09-23,10,935.0,0.0
P03,2024-09-23,10,940.0,0.0
P03,2024-09-23,10,945.0,0.0
P03,2024-09-23,10,950.0,0.0
P03,2024-09-23,10,955.0,0.0
P03,2024-09-23,10,960.0,0.0
P03,2024-09-23,10,965.0,0.0
P03,2024-09-23,10,970.0,0.0
P03,2024-09-23,10,975.0,0.0
P03,2024-09-23,10,980.0,0.0
P03,2024-09-23,10,985.0,0.0
P03,2024-09-23,10,990.0,0.0
P03,2024-09-23,10,995.0,0.0
P03,2024-09-23,10,1000.0,0.0
P03,2024-09-23,10,1005.0,0.0
P03,2024-09-23,10,1010.0,0.0
P03,2024-09-23,10,1015.0,0.0
P03,2024-09-23,10,1020.0,0.0
P03,2024-09-23,10,1025.0,0.0
P03,2024-09-23,10,1030.0,0.0
P03,2024-09-23,10,1035.0,0.0
P03,2024-09-23,10,1040.0,0.0
P03,2024-09-23,10,1045.0,0.0
P03,2024-09-23,10,1050.0,0.0
P03,2024-09-23,10,1055.0,0.0
P03,2024-09-23,10,1060.0,0.0
P03,2024-09-23,10,1065.0,0.0
P03,2024-09-23,10,1070.0,0.0
P03,2024-09-23,10,1075.0,0.0
P03,2024-09-23,10,1080.0,0.0
P03,2024-09-23,10,1085.0,0.0
P03,2024-09-23,10,1090.0,0.0
P03,2024-09-23,10,1095.0,0.0
P03,2024-09-23,10,1100.0,0.0
P03,2024-09-23,10,1105.0,0.0
P03,2024-09-23,10,1110.0,0.0
P03,2024-09-23,10,1115.0,0.0
P03,2024-09-23,10,1120.0,0.0
P03,2024-09-23,10,1125.0,0.0
P03,2024-09-23,10,1130.0,0.0
P03,2024-09-23,10,1135.0,0.0
P03,2024-09-23,10,1140.0,0.0
P03,2024-09-23,10,1145.0,0.0
P03,2024-09-23,10,1150.0,0.0
P03,2024-09-23,10,1155.0,0.0
P03,2024-09-23,10,1160.0,0.0
P03,2024-09-23,10,1165.0,0.0
P03,2024-09-23,10,1170.0,0.0
P03,2024-09-23,10,1175.0,0.0
P03,2024-09-23,10,1180.0,0.0
P03,2024-09-23,10,1185.0,0.0
P03,2024-09-23,10,1190.0,0.0
P03,2024-09-23,10,1195.0,0.0
P03,2024-09-23,10,1200.0,0.0
P03,2024-09-23,10,1205.0,0.0
P03,2024-09-23,10,1210.0,0.0
P03,2024-09-23,10,1215.0,0.0
P03,2024-09-23,10,1220.0,0.0
P03,2024-09-23,10,1225.0,0.0
P03,2024-09-23,10,1230.0,0.0
P04,2024-09-27,6,0.0,0.0
P04,2024-09-27,6,5.0,0.0
P04,2024-09-27,6,10.0,0.0
P04,2024-09-27,6,15.0,0.0
P04,2024-09-27,6,20.0,0.0
P04,2024-09-27,6,25.0,0.0
P04,2024-09-27,6,30.0,0.0
P04,2024-09-27,6,35.0,0.0
P04,2024-09-27,6,40.0,0.0
P04,2024-09-27,6,45.0,0.0
P04,2024-09-27,6,50.0,0.0
P04,2024-09-27,6,55.0,0.0
P04,2024-09-27,6,60.0,0.0
P04,2024-09-27,6,65.0,0.0
P04,2024-09-27,6,70.0,0.0
P04,2024-09-27,6,75.0,0.0
P04,2024-09-27,6,80.0,0.0
P04,2024-09-27,6,85.0,0.0
P04,2024-09-27,6,90.0,0.0
P04,2024-09-27,6,95.0,0.0
P04,2024-09-27,6,100.0,0.0
P04,2024-09-27,6,105.0,0.0
P04,2024-09-27,6,110.0,0.0
P04,2024-09-27,6,115.0,0.0
P04,2024-09-27,6,120.0,0.0
P04,2024-09-27,6,125.0,0.0
P04,2024-09-27,6,130.0,0.0
P04,2024-09-27,6,135.0,0.0
P04,2024-09-27,6,140.0,0.0
P04,2024-09-27,6,145.0,0.0
P04,2024-09-27,6,150.0,0.0
P04,2024-09-27,6,155.0,0.0
P04,2024-09-27,6,160.0,0.0
P04,2024-09-27,6,165.0,0.0
P04,2024-09-27,6,170.0,0.0
P04,2024-09-27,6,175.0,0.0
P04,2024-09-27,6,180.0,0.0
P04,2024-09-27,6,185.0,0.0
P04,2024-09-27,6,190.0,0.0
P04,2024-09-27,6,195.0,0.0
P04,2024-09-27,6,200.0,0.0
P04,2024-09-27,6,205.0,0.0
P04,2024-09-27,6,210.0,0.0
P04,2024-09-27,6,215.0,0.0
P04,2024-09-27,6,220.0,0.0
P04,2024-09-27,6,225.0,0.0
P04,2024-09-27,6,230.0,0.0
P04,2024-09-27,6,235.0,0.0
P04,2024-09-27,6,240.0,0.0
P04,2024-09-27,6,245.0,0.0
P04,2024-09-27,6,250.0,0.0
P04,2024-09-27,6,255.0,0.0
P04,2024-09-27,6,260.0,0.0
P04,2024-09-27,6,265.0,0.0
P04,2024-09-27,6,270.0,0.0
P04,2024-09-27,6,275.0,0.0
P04,2024-09-27,6,280.0,0.0
P04,2024-09-27,6,285.0,0.0
P04,2024-09-27,6,290.0,0.0
P04,2024-09-27,6,295.0,0.0
P04,2024-09-27,6,300.0,0.0
P04,2024-09-27,6,305.0,0.0
P04,2024-09-27,6,310.0,0.0
P04,2024-09-27,6,315.0,0.0
P04,2024-09-27,6,320.0,0.0
P04,2024-09-27,6,325.0,0.0
P04,2024-09-27,6,330.0,0.0
P04,2024-09-27,6,335.0,0.0
P04,2024-09-27,6,340.0,0.0
P04,2024-09-27,6,345.0,0.0
P04,2024-09-27,6,350.0,0.0
P04,2024-09-27,6,355.0,0.0
P04,2024-09-27,6,360.0,0.0
P04,2024-09-27,6,365.0,0.0
P04,2024-09-27,6,370.0,0.0
P04,2024-09-27,6,375.0,0.0
P04,2024-09-27,6,380.0,0.0
P04,2024-09-27,6,385.0,0.0
P04,2024-09-27,6,390.0,0.0
P04,2024-09-27,6,395.0,0.0
P04,2024-09-27,6,400.0,0.0
P04,2024-09-27,6,405.0,0.0
P04,2024-09-27,6,410.0,0.0
P04,2024-09-27,6,415.0,0.0
P04,2024-09-27,6,420.0,0.0
P04,2024-09-27,6,425.0,0.0
P04,2024-09-27,6,430.0,0.0
P04,2024-09-27,6,435.0,0.0
P04,2024-09-27,6,440.0,0.0
P04,2024-09-27,6,445.0,0.0
P04,2024-09-27,6,450.0,0.0
P04,2024-09-27,6,455.0,0.0
P04,2024-09-27,6,460.0,0.0
P04,2024-09-27,6,465.0,0.0
P04,2024-09-27,6,470.0,0.0
P04,2024-09-27,6,475.0,0.0
P04,2024-09-27,6,480.0,0.0
P04,2024-09-27,6,485.0,0.0
P04,2024-09-27,6,490.0,0.0
P04,2024-09-27,6,495.0,0.0
P04,2024-09-27,6,500.0,0.0
P04,2024-09-27,6,505.0,0.0
P04,2024-09-27,6,510.0,0.0
P04,2024-09-27,6,515.0,0.0
P04,2024-09-27,6,520.0,0.0
P04,2024-09-27,6,525.0,0.0
P04,2024-09-27,6,530.0,0.0
P04,2024-09-27,6,535.0,0.0
P04,2024-09-27,6,540.0,0.0
P04,2024-09-27,6,545.0,0.0
P04,2024-09-27,6,550.0,0.0
P04,2024-09-27,6,555.0,0.0
P04,2024-09-27,6,560.0,0.0
P04,2024-09-27,6,565.0,0.0
P04,2024-09-27,6,570.0,0.0
P04,2024-09-27,6,575.0,0.0
P04,2024-09-27,6,580.0,0.0
P04,2024-09-27,6,585.0,0.0
P04,2024-09-27,6,590.0,0.0
P04,2024-09-27,6,595.0,0.0
P04,2024-09-27,6,600.0,0.0
P04,2024-09-27,6,605.0,0.0
P04,2024-09-27,6,610.0,0.0
P04,2024-09-27,6,615.0,0.0
P04,2024-09-27,6,620.0,0.0
P04,2024-09-27,6,625.0,0.0
P04,2024-09-27,6,630.0,0.0
P04,2024-09-27,6,635.0,0.0
P04,2024-09-27,6,640.0,0.0
P04,2024-09-27,6,645.0,0.0
P04,2024-09-27,6,650.0,0.0
P04,2024-09-27,6,655.0,0.0
P04,2024-09-27,6,660.0,0.0
P04,2024-09-27,6,665.0,0.0
P04,2024-09-27,6,670.0,0.0
P04,2024-09-27,6,675.0,0.0
P04,2024-09-27,6,680.0,0.0
P04,2024-09-27,6,685.0,0.0
P04,2024-09-27,6,690.0,0.0
P04,2024-09-27,6,695.0,0.0
P04,2024-09-27,6,700.0,0.0
P04,2024-09-27,6,705.0,0.0
P04,2024-09-27,6,710.0,0.0
P04,2024-09-27,6,715.0,0.0
P04,2024-09-27,6,720.0,0.0
P04,2024-09-27,6,725.0,0.0
P04,2024-09-27,6,730.0,0.0
P04,2024-09-27,6,735.0,0.0
P04,2024-09-27,6,740.0,0.0
P04,2024-09-27,6,745.0,0.0
P04,2024-09-27,6,750.0,0.0
P04,2024-09-27,6,755.0,0.0
P04,2024-09-27,6,760.0,0.0
P04,2024-09-27,6,765.0,0.0
P04,2024-09-27,6,770.0,0.0
P04,2024-09-27,6,775.0,0.0
P04,2024-09-27,6,780.0,0.0
P04,2024-09-27,6,785.0,0.0
P04,2024-09-27,6,790.0,0.0
P04,2024-09-27,6,795.0,0.0
P04,2024-09-27,6,800.0,0.0
P04,2024-09-27,6,805.0,0.0
P04,2024-09-27,6,810.0,0.0
P04,2024-09-27,6,815.0,0.0
P04,2024-09-27,6,820.0,0.0
P04,2024-09-27,6,825.0,0.0
P04,2024-09-27,6,830.0,0.0
P04,2024-09-27,6,835.0,0.0
P04,2024-09-27,6,840.0,0.0
P04,2024-09-27,6,845.0,0.0
P04,2024-09-27,6,850.0,0.0
P04,2024-09-27,6,855.0,0.0
P04,2024-09-27,6,860.0,0.0
P04,2024-09-27,6,865.0,0.0
P04,2024-09-27,6,870.0,0.0
P04,2024-09-27,6,875.0,0.0
P04,2024-09-27,6,880.0,0.0
P04,2024-09-27,6,885.0,0.0
P04,2024-09-27,6,890.0,0.0
P04,2024-09-27,6,895.0,0.0
P04,2024-09-27,6,900.0,0.0
P04,2024-09-27,6,905.0,0.0
P04,2024-09-27,6,910.0,0.0
P04,2024-09-27,6,915.0,0.0
P04,2024-09-27,6,920.0,0.0
P04,2024-09-27,6,925.0,0.0
P04,2024-09-27,6,930.0,0.0
P04,2024-09-27,6,935.0,0.0
P04,2024-09-27,6,940.0,0.0
P04,2024-09-27,6,945.0,0.0
P04,2024-09-27,6,950.0,0.0
P04,2024-09-27,6,955.0,0.0
P04,2024-09-27,6,960.0,0.0
P04,2024-09-27,6,965.0,0.0
P04,2024-09-27,6,970.0,0.0
P04,2024-09-27,6,975.0,0.0
P04,2024-09-27,6,980.0,0.0
P04,2024-09-27,6,985.0,0.0
P04,2024-09-27,6,990.0,0.0
P04,2024-09-27,6,995.0,0.0
P04,2024-09-27,6,1000.0,0.0
P04,2024-09-27,6,1005.0,0.0
P04,2024-09-27,6,1010.0,0.0
P04,2024-09-27,6,1015.0,0.0
P04,2024-09-27,6,1020.0,0.0
P04,2024-09-27,6,1025.0,0.0
P04,2024-09-27,6,1030.0,0.0
P04,2024-09-27,6,1035.0,0.0
P04,2024-09-27,6,1040.0,0.0
P04,2024-09-27,6,1045.0,0.0
P04,2024-09-27,6,1050.0,0.0
P04,2024-09-27,6,1055.0,0.0
P04,2024-09-27,6,1060.0,0.0
P04,2024-09-27,6,1065.0,0.0
P04,2024-09-27,6,1070.0,0.0
P04,2024-09-27,6,1075.0,0.0
P04,2024-09-27,6,1080.0,0.0
P04,2024-09-27,6,1085.0,0.0
P04,2024-09-27,6,1090.0,0.0
P04,2024-09-27,6,1095.0,0.0
P04,2024-09-27,6,1100.0,0.0
P04,2024-09-27,6,1105.0,0.0
P04,2024-09-27,6,1110.0,0.0
P04,2024-09-27,6,1115.0,0.0
P04,2024-09-27,6,1120.0,0.0
P04,2024-09-27,6,1125.0,0.0
P04,2024-09-27,6,1130.0,0.0
P04,2024-09-27,6,1135.0,0.0
P04,2024-09-27,6,1140.0,0.0
P04,2024-09-27,6,1145.0,0.0
P04,2024-09-27,6,1150.0,0.0
P04,2024-09-27,6,1155.0,0.0
P04,2024-09-27,6,1160.0,0.0
P04,2024-09-27,6,1165.0,0.0
P04,2024-09-27,6,1170.0,0.0
P04,2024-09-27,6,1175.0,0.0
P04,2024-09-27,6,1180.0,0.0
P04,2024-09-27,6,1185.0,0.0
P04,2024-09-27,6,1190.0,0.0
P04,2024-09-27,6,1195.0,0.0
P04,2024-09-27,6,1200.0,0.0
P04,2024-09-27,6,1205.0,0.0
P04,2024-09-27,6,1210.0,0.0
P04,2024-09-27,6,1215.0,0.0
P04,2024-09-27,6,1220.0,0.0
P04,2024-09-27,6,1225.0,0.0
P04,2024-09-27,6,1230.0,0.0
P04,2024-09-27,7,0.0,0.0
P04,2024-09-27,7,5.0,0.0
P04,2024-09-27,7,10.0,0.0
P04,2024-09-27,7,15.0,0.0
P04,2024-09-27,7,20.0,0.0
P04,2024-09-27,7,25.0,0.0
P04,2024-09-27,7,30.0,0.0
P04,2024-09-27,7,35.0,0.0
P04,2024-09-27,7,40.0,0.0
P04,2024-09-27,7,45.0,0.0
P04,2024-09-27,7,50.0,0.0
P04,2024-09-27,7,55.0,0.0
P04,2024-09-27,7,60.0,0.0
P04,2024-09-27,7,65.0,0.0
P04,2024-09-27,7,70.0,0.0
P04,2024-09-27,7,75.0,0.0
P04,2024-09-27,7,80.0,0.0
P04,2024-09-27,7,85.0,0.0
P04,2024-09-27,7,90.0,0.0
P04,2024-09-27,7,95.0,0.0
P04,2024-09-27,7,100.0,0.0
P04,2024-09-27,7,105.0,0.0
P04,2024-09-27,7,110.0,0.0
P04,2024-09-27,7,115.0,0.0
P04,2024-09-27,7,120.0,0.0
P04,2024-09-27,7,125.0,0.0
P04,2024-09-27,7,130.0,0.0
P04,2024-09-27,7,135.0,0.0
P04,2024-09-27,7,140.0,0.0
P04,2024-09-27,7,145.0,0.0
P04,2024-09-27,7,150.0,0.0
P04,2024-09-27,7,155.0,0.0
P04,2024-09-27,7,160.0,0.0
P04,2024-09-27,7,165.0,0.0
P04,2024-09-27,7,170.0,0.0
P04,2024-09-27,7,175.0,0.0
P04,2024-09-27,7,180.0,0.0
P04,2024-09-27,7,185.0,0.0
P04,2024-09-27,7,190.0,0.0
P04,2024-09-27,7,195.0,0.0
P04,2024-09-27,7,200.0,0.0
P04,2024-09-27,7,205.0,0.0
P04,2024-09-27,7,210.0,0.0
P04,2024-09-27,7,215.0,0.0
P04,2024-09-27,7,220.0,0.0
P04,2024-09-27,7,225.0,0.0
P04,2024-09-27,7,230.0,0.0
P04,2024-09-27,7,235.0,0.0
P04,2024-09-27,7,240.0,0.0
P04,2024-09-27,7,245.0,0.0
P04,2024-09-27,7,250.0,0.0
P04,2024-09-27,7,255.0,0.0
P04,2024-09-27,7,260.0,0.0
P04,2024-09-27,7,265.0,0.0
P04,2024-09-27,7,270.0,0.0
P04,2024-09-27,7,275.0,0.0
P04,2024-09-27,7,280.0,0.0
P04,2024-09-27,7,285.0,0.0
P04,2024-09-27,7,290.0,0.0
P04,2024-09-27,7,295.0,0.0
P04,2024-09-27,7,300.0,0.0
P04,2024-09-27,7,305.0,0.0
P04,2024-09-27,7,310.0,0.0
P04,2024-09-27,7,315.0,0.0
P04,2024-09-27,7,320.0,0.0
P04,2024-09-27,7,325.0,0.0
P04,2024-09-27,7,330.0,0.0
P04,2024-09-27,7,335.0,0.0
P04,2024-09-27,7,340.0,0.0
P04,2024-09-27,7,345.0,0.0
P04,2024-09-27,7,350.0,0.0
P04,2024-09-27,7,355.0,0.0
P04,2024-09-27,7,360.0,0.0
P04,2024-09-27,7,365.0,0.0
P04,2024-09-27,7,370.0,0.0
P04,2024-09-27,7,375.0,0.0
P04,2024-09-27,7,380.0,0.0
P04,2024-09-27,7,385.0,0.0
P04,2024-09-27,7,390.0,0.0
P04,2024-09-27,7,395.0,0.0
P04,2024-09-27,7,400.0,0.0
P04,2024-09-27,7,405.0,0.0
P04,2024-09-27,7,410.0,0.0
P04,2024-09-27,7,415.0,0.0
P04,2024-09-27,7,420.0,0.0
P04,2024-09-27,7,425.0,0.0
P04,2024-09-27,7,430.0,0.0
P04,2024-09-27,7,435.0,0.0
P04,2024-09-27,7,440.0,0.0
P04,2024-09-27,7,445.0,0.0
P04,2024-09-27,7,450.0,0.0
P04,2024-09-27,7,455.0,0.0
P04,2024-09-27,7,460.0,0.0
P04,2024-09-27,7,465.0,0.0
P04,2024-09-27,7,470.0,0.0
P04,2024-09-27,7,475.0,0.0
P04,2024-09-27,7,480.0,0.0
P04,2024-09-27,7,485.0,0.0
P04,2024-09-27,7,490.0,0.0
P04,2024-09-27,7,495.0,0.0
P04,2024-09-27,7,500.0,0.0
P04,2024-09-27,7,505.0,0.0
P04,2024-09-27,7,510.0,0.0
P04,2024-09-27,7,515.0,0.0
P04,2024-09-27,7,520.0,0.0
P04,2024-09-27,7,525.0,0.0
P04,2024-09-27,7,530.0,0.0
P04,2024-09-27,7,535.0,0.0
P04,2024-09-27,7,540.0,0.0
P04,2024-09-27,7,545.0,0.0
P04,2024-09-27,7,550.0,0.0
P04,2024-09-27,7,555.0,0.0
P04,2024-09-27,7,560.0,0.0
P04,2024-09-27,7,565.0,0.0
P04,2024-09-27,7,570.0,0.0
P04,2024-09-27,7,575.0,0.0
P04,2024-09-27,7,580.0,0.0
P04,2024-09-27,7,585.0,0.0
P04,2024-09-27,7,590.0,0.0
P04,2024-09-27,7,595.0,0.0
P04,2024-09-27,7,600.0,0.0
P04,2024-09-27,7,605.0,0.0
P04,2024-09-27,7,610.0,0.0
P04,2024-09-27,7,615.0,0.0
P04,2024-09-27,7,620.0,0.0
P04,2024-09-27,7,625.0,0.0
P04,2024-09-27,7,630.0,0.0
P04,2024-09-27,7,635.0,0.0
P04,2024-09-27,7,640.0,0.0
P04,2024-09-27,7,645.0,0.0
P04,2024-09-27,7,650.0,0.0
P04,2024-09-27,7,655.0,0.0
P04,2024-09-27,7,660.0,0.0
P04,2024-09-27,7,665.0,0.0
P04,2024-09-27,7,670.0,0.0
P04,2024-09-27,7,675.0,0.0
P04,2024-09-27,7,680.0,0.0
P04,2024-09-27,7,685.0,0.0
P04,2024-09-27,7,690.0,0.0
P04,2024-09-27,7,695.0,0.0
P04,2024-09-27,7,700.0,0.0
P04,2024-09-27,7,705.0,0.0
P04,2024-09-27,7,710.0,0.0
P04,2024-09-27,7,715.0,0.0
P04,2024-09-27,7,720.0,0.0
P04,2024-09-27,7,725.0,0.0
P04,2024-09-27,7,730.0,0.0
P04,2024-09-27,7,735.0,0.0
P04,2024-09-27,7,740.0,0.0
P04,2024-09-27,7,745.0,0.0
P04,2024-09-27,7,750.0,0.0
P04,2024-09-27,7,755.0,0.0
P04,2024-09-27,7,760.0,0.0
P04,2024-09-27,7,765.0,0.0
P04,2024-09-27,7,770.0,0.0
P04,2024-09-27,7,775.0,0.0
P04,2024-09-27,7,780.0,0.0
P04,2024-09-27,7,785.0,0.0
P04,2024-09-27,7,790.0,0.0
P04,2024-09-27,7,795.0,0.0
P04,2024-09-27,7,800.0,0.0
P04,2024-09-27,7,805.0,0.0
P04,2024-09-27,7,810.0,0.0
P04,2024-09-27,7,815.0,0.0
P04,2024-09-27,7,820.0,0.0
P04,2024-09-27,7,825.0,0.0
P04,2024-09-27,7,830.0,0.0
P04,2024-09-27,7,835.0,0.0
P04,2024-09-27,7,840.0,0.0
P04,2024-09-27,7,845.0,0.0
P04,2024-09-27,7,850.0,0.0
P04,2024-09-27,7,855.0,0.0
P04,2024-09-27,7,860.0,0.0
P04,2024-09-27,7,865.0,0.0
P04,2024-09-27,7,870.0,0.0
P04,2024-09-27,7,875.0,0.0
P04,2024-09-27,7,880.0,0.0
P04,2024-09-27,7,885.0,0.0
P04,2024-09-27,7,890.0,0.0
P04,2024-09-27,7,895.0,0.0
P04,2024-09-27,7,900.0,0.0
P04,2024-09-27,7,905.0,0.0
P04,2024-09-27,7,910.0,0.0
P04,2024-09-27,7,915.0,0.0
P04,2024-09-27,7,920.0,0.0
P04,2024-09-27,7,925.0,0.0
P04,2024-09-27,7,930.0,0.0
P04,2024-09-27,7,935.0,0.0
P04,2024-09-27,7,940.0,0.0
P04,2024-09-27,7,945.0,0.0
P04,2024-09-27,7,950.0,0.0
P04,2024-09-27,7,955.0,0.0
P04,2024-09-27,7,960.0,0.0
P04,2024-09-27,7,965.0,0.0
P04,2024-09-27,7,970.0,0.0
P04,2024-09-27,7,975.0,0.0
P04,2024-09-27,7,980.0,0.0
P04,2024-09-27,7,985.0,0.0
P04,2024-09-27,7,990.0,0.0
P04,2024-09-27,7,995.0,0.0
P04,2024-09-27,7,1000.0,0.0
P04,2024-09-27,7,1005.0,0.0
P04,2024-09-27,7,1010.0,0.0
P04,2024-09-27,7,1015.0,0.0
P04,2024-09-27,7,1020.0,0.0
P04,2024-09-27,7,1025.0,0.0
P04,2024-09-27,7,1030.0,0.0
P04,2024-09-27,7,1035.0,0.0
P04,2024-09-27,7,1040.0,0.0
P04,2024-09-27,7,1045.0,0.0
P04,2024-09-27,7,1050.0,0.0
P04,2024-09-27,7,1055.0,0.0
P04,2024-09-27,7,1060.0,0.0
P04,2024-09-27,7,1065.0,0.0
P04,2024-09-27,7,1070.0,0.0
P04,2024-09-27,7,1075.0,0.0
P04,2024-09-27,7,1080.0,0.0
P04,2024-09-27,7,1085.0,0.0
P04,2024-09-27,7,1090.0,0.0
P04,2024-09-27,7,1095.0,0.0
P04,2024-09-27,7,1100.0,0.0
P04,2024-09-27,7,1105.0,0.0
P04,2024-09-27,7,1110.0,0.0
P04,2024-09-27,7,1115.0,0.0
P04,2024-09-27,7,1120.0,0.0
P04,2024-09-27,7,1125.0,0.0
P04,2024-09-27,7,1130.0,0.0
P04,2024-09-27,7,1135.0,0.0
P04,2024-09-27,7,1140.0,0.0
P04,2024-09-27,7,1145.0,0.0
P04,2024-09-27,7,1150.0,0.0
P04,2024-09-27,7,1155.0,0.0
P04,2024-09-27,7,1160.0,0.0
P04,2024-09-27,7,1165.0,0.0
P04,2024-09-27,7,1170.0,0.0
P04,2024-09-27,7,1175.0,0.0
P04,2024-09-27,7,1180.0,0.0
P04,2024-09-27,7,1185.0,0.0
P04,2024-09-27,7,1190.0,0.0
P04,2024-09-27,7,1195.0,0.0
P04,2024-09-27,7,1200.0,0.0
P04,2024-09-27,7,1205.0,0.0
P04,2024-09-27,7,1210.0,0.0
P04,2024-09-27,7,1215.0,0.0
P04,2024-09-27,7,1220.0,0.0
P04,2024-09-27,7,1225.0,0.0
P04,2024-09-27,7,1230.0,0.0
P04,2024-09-27,8,0.0,1.0
P04,2024-09-27,8,5.0,0.98
P04,2024-09-27,8,10.0,0.94
P04,2024-09-27,8,15.0,1.0
P04,2024-09-27,8,20.0,1.0
P04,2024-09-27,8,25.0,1.0
P04,2024-09-27,8,30.0,1.0
P04,2024-09-27,8,35.0,1.0
P04,2024-09-27,8,40.0,1.0
P04,2024-09-27,8,45.0,1.0
P04,2024-09-27,8,50.0,1.0
P04,2024-09-27,8,55.0,1.0
P04,2024-09-27,8,60.0,1.0
P04,2024-09-27,8,65.0,1.0
P04,2024-09-27,8,70.0,1.0
P04,2024-09-27,8,75.0,1.0
P04,2024-09-27,8,80.0,1.0
P04,2024-09-27,8,85.0,1.0
P04,2024-09-27,8,90.0,1.0
P04,2024-09-27,8,95.0,1.0
P04,2024-09-27,8,100.0,1.0
P04,2024-09-27,8,105.0,1.0
P04,2024-09-27,8,110.0,1.0
P04,2024-09-27,8,115.0,1.0
P04,2024-09-27,8,120.0,1.0
P04,2024-09-27,8,125.0,1.0
P04,2024-09-27,8,130.0,1.0
P04,2024-09-27,8,135.0,1.0
P04,2024-09-27,8,140.0,1.0
P04,2024-09-27,8,145.0,1.0
P04,2024-09-27,8,150.0,1.0
P04,2024-09-27,8,155.0,1.0
P04,2024-09-27,8,160.0,1.0
P04,2024-09-27,8,165.0,1.0
P04,2024-09-27,8,170.0,1.0
